Time,EMG1,EMG2,IO,EMG3,EMG4
0.0000,-1197.0000,-837.5000,-7.5000,-292.5000,-2891.5000
1.0000,-1191.0000,-814.5000,-7.5000,-280.5000,-2905.0000
2.0000,-1195.0000,-797.5000,-6.5000,-283.0000,-2918.5000
3.0000,-1205.5000,-799.0000,-6.0000,-289.0000,-2925.5000
4.0000,-1218.0000,-807.5000,-5.0000,-298.0000,-2921.0000
5.0000,-1231.5000,-812.0000,-4.0000,-305.5000,-2915.5000
6.0000,-1247.5000,-809.0000,-3.0000,-309.0000,-2909.0000
7.0000,-1273.0000,-809.0000,-2.5000,-316.5000,-2904.0000
8.0000,-1311.0000,-811.0000,-1.5000,-336.5000,-2902.5000
9.0000,-1336.0000,-806.0000,-0.5000,-352.0000,-2899.5000
10.0000,-1355.0000,-791.5000,0.0000,-364.0000,-2896.0000
11.0000,-1375.0000,-769.0000,0.0000,-371.0000,-2895.5000
12.0000,-1397.5000,-735.5000,0.5000,-370.5000,-2900.5000
13.0000,-1409.0000,-705.0000,1.0000,-368.0000,-2894.0000
14.0000,-1414.0000,-672.5000,1.5000,-370.5000,-2873.0000
15.0000,-1420.0000,-636.0000,1.5000,-371.5000,-2858.0000
16.0000,-1430.5000,-598.5000,1.0000,-373.5000,-2850.0000
17.0000,-1448.0000,-568.0000,1.0000,-378.0000,-2859.5000
18.0000,-1468.0000,-537.5000,0.0000,-381.5000,-2891.0000
19.0000,-1476.0000,-505.0000,0.0000,-379.0000,-2905.5000
20.0000,-1478.0000,-470.5000,-0.5000,-372.5000,-2906.0000
21.0000,-1496.0000,-457.5000,-1.0000,-383.0000,-2912.0000
22.0000,-1522.5000,-453.5000,-1.5000,-404.0000,-2922.5000
23.0000,-1535.0000,-445.5000,-2.0000,-414.0000,-2956.5000
24.0000,-1543.5000,-435.0000,-2.0000,-414.0000,-3018.5000
25.0000,-1562.0000,-438.0000,-2.5000,-417.5000,-3045.5000
26.0000,-1578.0000,-442.5000,-2.5000,-423.5000,-3042.5000
27.0000,-1565.5000,-433.5000,-2.5000,-423.0000,-3007.5000
28.0000,-1553.0000,-427.0000,-2.5000,-420.5000,-2956.0000
29.0000,-1579.5000,-455.0000,-2.0000,-428.5000,-2978.5000
30.0000,-1617.5000,-491.0000,-1.5000,-452.0000,-3064.0000
31.0000,-1643.5000,-505.0000,-1.0000,-470.0000,-3097.5000
32.0000,-1658.0000,-510.0000,-0.5000,-479.0000,-3091.0000
33.0000,-1663.5000,-517.5000,0.0000,-474.5000,-3043.0000
34.0000,-1666.5000,-523.0000,1.0000,-462.0000,-2970.5000
35.0000,-1671.0000,-509.5000,2.0000,-462.0000,-2939.0000
36.0000,-1674.0000,-493.5000,3.0000,-466.0000,-2925.0000
37.0000,-1666.5000,-481.0000,4.0000,-452.0000,-2910.0000
38.0000,-1657.5000,-474.5000,4.5000,-432.5000,-2887.0000
39.0000,-1652.5000,-474.0000,5.0000,-431.0000,-2856.0000
40.0000,-1650.0000,-475.5000,5.5000,-439.5000,-2822.0000
41.0000,-1643.0000,-471.0000,6.5000,-445.0000,-2810.5000
42.0000,-1641.0000,-474.0000,7.0000,-449.0000,-2811.0000
43.0000,-1647.5000,-492.0000,8.0000,-452.0000,-2830.5000
44.0000,-1653.0000,-502.0000,9.0000,-456.0000,-2852.0000
45.0000,-1654.5000,-483.5000,10.0000,-457.0000,-2825.5000
46.0000,-1650.0000,-458.5000,11.0000,-454.5000,-2777.0000
47.0000,-1639.5000,-427.0000,11.5000,-447.0000,-2724.5000
48.0000,-1631.0000,-405.5000,12.0000,-440.0000,-2680.5000
49.0000,-1628.5000,-401.0000,12.5000,-447.0000,-2673.0000
50.0000,-1627.5000,-396.0000,13.0000,-452.5000,-2674.5000
51.0000,-1620.5000,-380.0000,13.0000,-446.0000,-2646.5000
52.0000,-1608.5000,-362.0000,13.0000,-436.0000,-2615.0000
53.0000,-1590.5000,-341.5000,13.0000,-428.5000,-2588.5000
54.0000,-1574.5000,-328.0000,13.0000,-425.0000,-2575.5000
55.0000,-1557.0000,-324.0000,13.5000,-423.5000,-2587.5000
56.0000,-1538.0000,-314.5000,13.5000,-420.5000,-2600.5000
57.0000,-1518.5000,-298.0000,14.0000,-406.0000,-2588.5000
58.0000,-1511.0000,-293.0000,14.0000,-395.5000,-2569.0000
59.0000,-1514.0000,-302.0000,14.0000,-397.5000,-2544.5000
60.0000,-1513.5000,-309.0000,14.0000,-402.5000,-2515.5000
61.0000,-1496.5000,-304.0000,14.0000,-404.5000,-2471.5000
62.0000,-1482.0000,-300.0000,13.5000,-403.0000,-2422.5000
63.0000,-1472.5000,-301.0000,12.5000,-401.0000,-2368.5000
64.0000,-1453.0000,-286.0000,11.5000,-398.5000,-2320.0000
65.0000,-1421.0000,-248.5000,10.5000,-389.0000,-2274.0000
66.0000,-1389.5000,-217.5000,9.5000,-381.0000,-2238.0000
67.0000,-1356.5000,-186.5000,9.0000,-383.5000,-2220.0000
68.0000,-1330.0000,-157.0000,9.0000,-384.5000,-2203.5000
69.0000,-1301.5000,-119.0000,8.5000,-378.0000,-2184.0000
70.0000,-1266.0000,-81.5000,8.0000,-365.5000,-2162.0000
71.0000,-1220.0000,-35.0000,7.5000,-350.5000,-2146.0000
72.0000,-1176.5000,11.0000,7.0000,-336.0000,-2130.0000
73.0000,-1132.5000,59.5000,6.5000,-321.5000,-2106.5000
74.0000,-1094.0000,104.0000,6.5000,-310.0000,-2083.0000
75.0000,-1053.5000,148.5000,7.0000,-296.0000,-2043.5000
76.0000,-1029.5000,174.0000,7.5000,-293.5000,-2015.0000
77.0000,-1010.5000,192.0000,8.5000,-305.5000,-1990.0000
78.0000,-978.0000,222.0000,9.0000,-304.0000,-1967.5000
79.0000,-936.5000,260.0000,10.0000,-284.5000,-1938.5000
80.0000,-910.5000,284.0000,10.5000,-270.5000,-1915.0000
81.0000,-887.5000,299.5000,11.0000,-267.0000,-1890.5000
82.0000,-868.5000,308.0000,11.5000,-267.0000,-1869.0000
83.0000,-843.5000,315.0000,12.0000,-266.0000,-1841.5000
84.0000,-803.0000,332.0000,11.5000,-258.0000,-1808.0000
85.0000,-762.0000,345.5000,11.5000,-251.0000,-1772.5000
86.0000,-740.5000,340.0000,11.0000,-248.0000,-1741.0000
87.0000,-720.0000,330.5000,10.5000,-253.5000,-1713.5000
88.0000,-670.5000,338.0000,10.0000,-246.5000,-1671.0000
89.0000,-617.0000,349.5000,10.0000,-229.0000,-1612.0000
90.0000,-582.0000,344.5000,9.5000,-222.0000,-1581.0000
91.0000,-553.5000,336.5000,10.0000,-220.5000,-1570.0000
92.0000,-508.5000,344.0000,10.5000,-215.5000,-1551.0000
93.0000,-465.5000,355.5000,11.0000,-202.5000,-1520.5000
94.0000,-442.0000,355.5000,11.5000,-195.5000,-1502.0000
95.0000,-417.5000,354.5000,12.0000,-192.5000,-1487.0000
96.0000,-381.5000,365.5000,12.5000,-186.0000,-1463.0000
97.0000,-340.0000,378.5000,13.0000,-174.5000,-1427.0000
98.0000,-293.0000,390.5000,13.5000,-161.5000,-1389.0000
99.0000,-248.5000,401.0000,13.5000,-147.0000,-1345.5000
100.0000,-206.0000,405.0000,14.0000,-139.5000,-1305.0000
101.0000,-171.5000,400.5000,14.5000,-136.0000,-1266.5000
102.0000,-151.0000,373.5000,15.5000,-145.5000,-1234.0000
103.0000,-126.0000,355.5000,16.5000,-153.5000,-1195.0000
104.0000,-69.0000,368.5000,17.5000,-136.0000,-1136.0000
105.0000,-18.5000,375.0000,18.5000,-111.0000,-1063.0000
106.0000,21.5000,360.5000,19.0000,-111.0000,-1014.0000
107.0000,57.0000,346.5000,20.0000,-119.5000,-973.5000
108.0000,99.5000,343.0000,20.0000,-111.5000,-914.0000
109.0000,135.0000,337.0000,20.0000,-102.0000,-851.5000
110.0000,163.5000,323.0000,20.0000,-100.5000,-797.0000
111.0000,190.5000,309.5000,20.0000,-106.5000,-750.5000
112.0000,221.5000,289.5000,20.0000,-111.5000,-707.5000
113.0000,248.0000,272.0000,20.0000,-110.0000,-663.5000
114.0000,274.0000,256.5000,20.0000,-104.5000,-607.0000
115.0000,304.0000,250.0000,20.0000,-101.5000,-552.0000
116.0000,347.0000,255.5000,19.5000,-103.0000,-497.0000
117.0000,369.0000,251.5000,19.5000,-105.5000,-447.0000
118.0000,370.5000,234.0000,19.5000,-110.0000,-403.0000
119.0000,379.5000,217.5000,19.0000,-109.0000,-362.5000
120.0000,404.0000,202.5000,18.5000,-108.0000,-320.5000
121.0000,439.0000,204.0000,18.0000,-100.0000,-273.0000
122.0000,491.5000,221.5000,17.5000,-77.0000,-204.0000
123.0000,514.0000,222.5000,17.5000,-61.5000,-148.5000
124.0000,515.0000,210.5000,17.0000,-62.5000,-115.0000
125.0000,509.5000,198.0000,16.5000,-66.0000,-88.0000
126.0000,496.0000,186.0000,15.5000,-70.0000,-64.0000
127.0000,487.5000,178.0000,15.0000,-70.0000,-34.0000
128.0000,478.5000,170.0000,14.0000,-62.0000,6.0000
129.0000,477.5000,168.5000,13.5000,-60.0000,37.0000
130.0000,480.0000,173.5000,13.5000,-55.0000,71.5000
131.0000,471.0000,169.5000,13.0000,-54.0000,93.5000
132.0000,454.0000,156.5000,12.5000,-62.0000,107.0000
133.0000,439.5000,151.5000,12.0000,-65.0000,121.5000
134.0000,424.5000,152.0000,12.0000,-58.5000,145.5000
135.0000,408.0000,153.5000,11.5000,-55.0000,160.5000
136.0000,387.5000,152.0000,11.0000,-54.0000,166.5000
137.0000,364.0000,143.5000,11.0000,-55.0000,167.5000
138.0000,340.0000,131.0000,10.5000,-53.5000,171.0000
139.0000,333.0000,119.5000,10.5000,-50.5000,178.5000
140.0000,333.5000,106.5000,10.5000,-42.5000,198.0000
141.0000,325.0000,83.5000,10.5000,-48.5000,202.5000
142.0000,317.5000,56.0000,10.5000,-71.0000,191.5000
143.0000,334.5000,50.5000,10.5000,-67.5000,200.0000
144.0000,361.5000,56.5000,10.5000,-47.5000,225.5000
145.0000,377.0000,68.5000,10.5000,-38.0000,248.0000
146.0000,380.5000,76.0000,10.5000,-38.0000,265.5000
147.0000,372.0000,68.5000,10.5000,-43.0000,272.0000
148.0000,364.5000,56.0000,10.0000,-47.5000,273.0000
149.0000,372.0000,47.0000,9.5000,-45.0000,280.0000
150.0000,376.5000,36.5000,9.0000,-40.5000,291.0000
151.0000,360.0000,7.0000,8.0000,-44.0000,296.0000
152.0000,336.5000,-21.0000,7.5000,-52.5000,293.5000
153.0000,305.0000,-29.0000,7.0000,-52.5000,300.0000
154.0000,274.5000,-28.5000,6.0000,-48.5000,308.5000
155.0000,240.5000,-17.0000,5.5000,-45.0000,317.0000
156.0000,212.0000,-0.5000,4.5000,-43.0000,323.0000
157.0000,189.0000,19.5000,3.5000,-39.5000,331.0000
158.0000,168.5000,34.5000,3.5000,-34.5000,337.5000
159.0000,139.5000,23.5000,3.0000,-35.5000,332.5000
160.0000,118.0000,10.0000,3.0000,-40.5000,319.0000
161.0000,113.5000,1.5000,3.0000,-37.5000,310.5000
162.0000,108.5000,-6.5000,3.5000,-29.5000,305.5000
163.0000,97.5000,-16.5000,3.5000,-29.5000,293.5000
164.0000,88.5000,-28.0000,4.0000,-33.0000,280.5000
165.0000,85.5000,-47.0000,4.5000,-30.5000,280.5000
166.0000,85.5000,-64.0000,5.0000,-25.0000,286.5000
167.0000,95.5000,-72.5000,5.5000,-23.5000,292.0000
168.0000,99.5000,-84.0000,6.0000,-25.5000,292.5000
169.0000,94.0000,-109.5000,7.0000,-37.5000,283.0000
170.0000,95.0000,-134.5000,8.0000,-43.5000,275.5000
171.0000,119.5000,-154.5000,9.5000,-24.0000,297.5000
172.0000,142.0000,-167.0000,11.0000,-3.0000,325.0000
173.0000,163.5000,-172.5000,12.0000,-0.5000,333.5000
174.0000,177.5000,-179.0000,13.5000,-6.5000,333.5000
175.0000,184.5000,-192.0000,15.0000,-10.5000,323.0000
176.0000,191.0000,-203.0000,16.0000,-11.5000,314.0000
177.0000,195.5000,-216.5000,17.0000,-20.5000,303.5000
178.0000,193.0000,-239.0000,18.0000,-28.0000,293.5000
179.0000,182.0000,-274.0000,19.0000,-32.5000,287.5000
180.0000,173.0000,-280.5000,19.5000,-33.5000,288.5000
181.0000,166.0000,-252.0000,20.0000,-32.5000,298.5000
182.0000,160.0000,-236.0000,20.0000,-30.0000,307.5000
183.0000,153.5000,-239.0000,19.5000,-25.0000,314.5000
184.0000,152.5000,-236.0000,19.0000,-16.0000,319.5000
185.0000,155.0000,-226.0000,18.5000,-3.0000,326.0000
186.0000,133.5000,-226.5000,18.0000,0.0000,326.5000
187.0000,94.0000,-237.5000,18.0000,-16.0000,315.0000
188.0000,66.0000,-248.0000,17.5000,-24.5000,312.5000
189.0000,50.5000,-258.0000,17.0000,-22.0000,324.5000
190.0000,44.5000,-262.0000,16.5000,-18.0000,332.5000
191.0000,42.5000,-269.5000,16.0000,-21.5000,324.5000
192.0000,24.5000,-283.0000,16.0000,-28.0000,312.5000
193.0000,-8.0000,-304.5000,15.5000,-35.0000,302.5000
194.0000,-38.0000,-332.5000,15.5000,-48.0000,294.0000
195.0000,-67.0000,-365.5000,15.5000,-66.0000,287.5000
196.0000,-92.5000,-378.0000,15.5000,-82.0000,287.0000
197.0000,-119.0000,-383.0000,15.5000,-96.0000,294.0000
198.0000,-136.5000,-405.0000,15.5000,-107.5000,295.5000
199.0000,-152.0000,-435.0000,16.0000,-119.5000,288.0000
200.0000,-174.5000,-443.5000,16.0000,-123.0000,284.5000
201.0000,-200.0000,-438.5000,16.0000,-121.5000,287.0000
202.0000,-217.0000,-442.0000,15.5000,-116.0000,297.0000
203.0000,-240.5000,-454.0000,15.5000,-108.0000,313.0000
204.0000,-289.5000,-469.5000,16.0000,-116.5000,317.0000
205.0000,-345.0000,-480.5000,16.0000,-136.0000,312.5000
206.0000,-379.0000,-485.5000,16.5000,-142.0000,311.5000
207.0000,-405.0000,-486.5000,17.0000,-136.5000,316.5000
208.0000,-435.5000,-489.0000,17.5000,-139.0000,318.0000
209.0000,-467.5000,-491.5000,18.0000,-145.0000,315.0000
210.0000,-503.0000,-498.0000,18.5000,-154.5000,305.5000
211.0000,-544.5000,-510.0000,18.5000,-167.0000,292.5000
212.0000,-608.0000,-541.0000,18.0000,-184.0000,274.5000
213.0000,-659.5000,-567.5000,17.0000,-202.0000,256.0000
214.0000,-674.5000,-564.0000,15.5000,-194.5000,260.5000
215.0000,-677.5000,-555.0000,14.0000,-171.0000,276.0000
216.0000,-676.0000,-542.5000,11.5000,-152.0000,288.0000
217.0000,-686.5000,-541.5000,10.0000,-141.5000,292.0000
218.0000,-730.5000,-564.5000,8.5000,-162.0000,273.0000
219.0000,-769.5000,-587.0000,7.5000,-193.5000,244.0000
220.0000,-796.0000,-599.5000,6.5000,-198.5000,230.5000
221.0000,-814.5000,-603.5000,6.0000,-190.5000,223.5000
222.0000,-820.5000,-588.0000,5.5000,-178.5000,230.0000
223.0000,-837.0000,-581.5000,5.5000,-169.0000,237.5000
224.0000,-875.0000,-597.5000,5.5000,-179.0000,217.0000
225.0000,-917.5000,-617.5000,5.5000,-197.5000,182.5000
226.0000,-966.5000,-636.5000,5.5000,-212.5000,146.5000
227.0000,-1003.5000,-641.5000,5.0000,-225.0000,114.0000
228.0000,-1022.5000,-625.5000,5.0000,-219.0000,100.0000
229.0000,-1034.5000,-608.0000,4.0000,-208.0000,92.5000
230.0000,-1049.0000,-597.0000,3.0000,-204.5000,78.5000
231.0000,-1071.0000,-598.5000,1.5000,-209.5000,59.5000
232.0000,-1111.5000,-618.5000,0.0000,-236.0000,23.0000
233.0000,-1136.5000,-628.5000,-2.5000,-256.0000,-11.5000
234.0000,-1141.0000,-621.5000,-4.5000,-250.0000,-30.0000
235.0000,-1140.0000,-611.0000,-6.5000,-240.0000,-42.5000
236.0000,-1143.0000,-610.0000,-8.5000,-237.0000,-59.0000
237.0000,-1148.0000,-611.0000,-10.5000,-235.5000,-75.0000
238.0000,-1155.5000,-606.5000,-12.0000,-234.5000,-98.5000
239.0000,-1168.0000,-609.0000,-13.0000,-239.5000,-124.5000
240.0000,-1189.5000,-613.5000,-14.0000,-252.0000,-154.5000
241.0000,-1207.5000,-618.0000,-14.5000,-261.5000,-181.5000
242.0000,-1223.0000,-622.0000,-15.0000,-263.5000,-205.0000
243.0000,-1243.0000,-624.5000,-16.0000,-263.0000,-227.5000
244.0000,-1266.5000,-625.5000,-16.5000,-267.0000,-261.0000
245.0000,-1283.5000,-624.5000,-17.0000,-272.0000,-291.0000
246.0000,-1296.5000,-623.5000,-17.5000,-279.5000,-322.0000
247.0000,-1299.5000,-623.0000,-18.0000,-282.0000,-344.5000
248.0000,-1296.5000,-623.5000,-19.0000,-276.5000,-357.0000
249.0000,-1300.0000,-635.5000,-19.5000,-278.5000,-376.0000
250.0000,-1307.0000,-654.0000,-20.0000,-289.0000,-405.5000
251.0000,-1311.5000,-655.5000,-20.0000,-296.5000,-427.5000
252.0000,-1313.5000,-641.5000,-20.5000,-294.0000,-443.0000
253.0000,-1320.0000,-640.0000,-20.5000,-292.0000,-457.0000
254.0000,-1330.5000,-648.5000,-20.5000,-300.0000,-477.0000
255.0000,-1331.5000,-655.0000,-21.0000,-304.5000,-497.0000
256.0000,-1330.0000,-662.0000,-21.0000,-301.5000,-515.0000
257.0000,-1329.0000,-667.5000,-21.5000,-300.0000,-527.5000
258.0000,-1326.5000,-672.0000,-22.0000,-298.0000,-540.5000
259.0000,-1309.0000,-670.0000,-22.0000,-294.0000,-544.5000
260.0000,-1286.5000,-665.5000,-22.5000,-284.0000,-540.0000
261.0000,-1269.0000,-664.5000,-23.0000,-278.5000,-544.5000
262.0000,-1262.0000,-669.0000,-23.5000,-279.0000,-559.0000
263.0000,-1269.0000,-688.5000,-23.5000,-288.0000,-580.0000
264.0000,-1284.5000,-714.0000,-24.0000,-304.5000,-611.0000
265.0000,-1296.5000,-728.5000,-24.0000,-312.0000,-631.5000
266.0000,-1305.0000,-737.0000,-24.0000,-314.5000,-647.0000
267.0000,-1294.0000,-733.0000,-24.0000,-306.0000,-652.0000
268.0000,-1280.5000,-723.0000,-23.5000,-290.0000,-646.5000
269.0000,-1271.0000,-714.5000,-23.0000,-281.5000,-648.0000
270.0000,-1263.0000,-707.5000,-22.5000,-278.0000,-654.5000
271.0000,-1272.5000,-714.0000,-21.5000,-286.0000,-674.0000
272.0000,-1282.0000,-723.0000,-20.5000,-303.5000,-704.5000
273.0000,-1263.5000,-719.0000,-19.5000,-306.5000,-718.5000
274.0000,-1234.0000,-709.5000,-18.5000,-301.5000,-725.0000
275.0000,-1201.0000,-695.5000,-17.5000,-295.5000,-728.0000
276.0000,-1169.5000,-682.0000,-16.0000,-289.5000,-729.0000
277.0000,-1133.5000,-671.0000,-15.0000,-279.0000,-730.0000
278.0000,-1099.0000,-663.5000,-14.5000,-269.5000,-732.5000
279.0000,-1065.0000,-659.5000,-13.5000,-267.0000,-739.0000
280.0000,-1039.5000,-659.0000,-13.0000,-265.5000,-746.5000
281.0000,-1026.0000,-660.5000,-13.0000,-273.0000,-759.0000
282.0000,-1010.5000,-656.5000,-12.5000,-280.0000,-773.0000
283.0000,-982.0000,-641.5000,-12.5000,-267.0000,-770.5000
284.0000,-945.5000,-621.0000,-12.5000,-243.5000,-763.0000
285.0000,-887.5000,-586.5000,-12.5000,-217.5000,-749.5000
286.0000,-838.0000,-553.5000,-12.5000,-192.0000,-732.5000
287.0000,-798.5000,-531.5000,-12.0000,-180.5000,-723.5000
288.0000,-764.5000,-507.0000,-12.0000,-170.0000,-714.5000
289.0000,-730.0000,-474.5000,-11.5000,-149.5000,-703.0000
290.0000,-699.0000,-448.5000,-11.5000,-124.0000,-691.5000
291.0000,-663.0000,-429.5000,-11.5000,-89.0000,-689.0000
292.0000,-630.5000,-413.0000,-11.0000,-58.0000,-687.0000
293.0000,-595.5000,-393.5000,-10.5000,-40.5000,-678.0000
294.0000,-569.5000,-379.5000,-10.0000,-28.0000,-669.5000
295.0000,-539.5000,-367.5000,-9.5000,-7.0000,-660.0000
296.0000,-520.5000,-359.5000,-9.0000,18.5000,-653.0000
297.0000,-514.0000,-357.0000,-8.5000,52.0000,-654.5000
298.0000,-492.5000,-346.5000,-8.0000,85.5000,-652.5000
299.0000,-448.0000,-325.5000,-7.5000,124.5000,-639.0000
300.0000,-409.5000,-301.5000,-7.5000,168.0000,-620.0000
301.0000,-372.5000,-270.5000,-7.5000,226.5000,-597.0000
302.0000,-345.0000,-245.0000,-7.0000,292.5000,-582.5000
303.0000,-319.0000,-221.0000,-7.0000,389.0000,-579.0000
304.0000,-327.0000,-222.5000,-6.5000,467.0000,-590.0000
305.0000,-370.5000,-246.5000,-6.5000,522.5000,-631.5000
306.0000,-424.5000,-294.5000,-6.5000,556.0000,-690.0000
307.0000,-496.5000,-370.0000,-6.5000,565.0000,-798.0000
308.0000,-589.5000,-468.5000,-6.5000,552.5000,-908.5000
309.0000,-709.5000,-596.5000,-7.0000,511.5000,-1044.5000
310.0000,-781.0000,-672.0000,-7.0000,453.5000,-1145.0000
311.0000,-831.0000,-721.0000,-7.5000,350.5000,-1219.0000
312.0000,-881.5000,-772.0000,-7.5000,256.5000,-1287.5000
313.0000,-941.0000,-839.0000,-8.0000,149.0000,-1370.0000
314.0000,-988.5000,-894.0000,-8.5000,64.0000,-1440.0000
315.0000,-1038.0000,-947.5000,-9.0000,-22.5000,-1508.5000
316.0000,-1098.5000,-1001.0000,-9.5000,-102.5000,-1576.5000
317.0000,-1170.5000,-1062.5000,-10.0000,-207.5000,-1668.5000
318.0000,-1242.0000,-1132.0000,-11.0000,-311.5000,-1753.0000
319.0000,-1316.5000,-1206.0000,-11.5000,-441.5000,-1844.0000
320.0000,-1372.5000,-1251.0000,-12.0000,-576.5000,-1906.5000
321.0000,-1415.0000,-1276.0000,-12.5000,-742.5000,-1951.0000
322.0000,-1422.0000,-1268.0000,-13.5000,-847.0000,-1968.0000
323.0000,-1412.0000,-1245.0000,-14.5000,-906.0000,-1962.0000
324.0000,-1419.5000,-1247.0000,-15.5000,-977.0000,-1973.0000
325.0000,-1430.0000,-1259.0000,-16.5000,-1071.0000,-1999.5000
326.0000,-1445.5000,-1265.5000,-17.5000,-1128.5000,-2029.5000
327.0000,-1469.0000,-1271.0000,-18.5000,-1163.0000,-2069.0000
328.0000,-1520.0000,-1298.5000,-19.0000,-1203.5000,-2115.5000
329.0000,-1572.0000,-1327.0000,-19.5000,-1254.0000,-2176.5000
330.0000,-1587.0000,-1335.0000,-19.5000,-1283.5000,-2206.0000
331.0000,-1579.5000,-1324.5000,-19.5000,-1299.5000,-2219.5000
332.0000,-1519.0000,-1271.0000,-19.0000,-1260.0000,-2189.0000
333.0000,-1450.5000,-1209.5000,-18.0000,-1184.5000,-2134.5000
334.0000,-1374.5000,-1142.0000,-16.5000,-1112.5000,-2088.5000
335.0000,-1303.5000,-1077.0000,-15.0000,-1038.5000,-2047.0000
336.0000,-1224.0000,-1004.5000,-13.5000,-945.0000,-2005.0000
337.0000,-1167.0000,-948.0000,-12.0000,-839.5000,-1966.5000
338.0000,-1146.0000,-928.0000,-11.0000,-765.0000,-1960.5000
339.0000,-1132.0000,-918.0000,-11.0000,-706.5000,-1972.0000
340.0000,-1106.5000,-896.5000,-10.5000,-660.5000,-1973.5000
341.0000,-1078.5000,-873.5000,-11.0000,-624.0000,-1966.5000
342.0000,-1039.0000,-842.0000,-11.0000,-593.5000,-1960.5000
343.0000,-998.0000,-810.0000,-11.5000,-562.5000,-1950.0000
344.0000,-947.5000,-769.0000,-11.5000,-522.5000,-1938.0000
345.0000,-898.0000,-724.0000,-12.0000,-480.5000,-1922.5000
346.0000,-855.0000,-679.5000,-12.0000,-449.5000,-1909.5000
347.0000,-816.5000,-636.5000,-13.0000,-421.5000,-1895.0000
348.0000,-779.0000,-593.0000,-13.5000,-393.0000,-1870.5000
349.0000,-748.5000,-558.5000,-14.0000,-366.5000,-1846.5000
350.0000,-734.0000,-535.5000,-14.5000,-349.0000,-1852.5000
351.0000,-730.5000,-512.5000,-15.0000,-332.5000,-1862.5000
352.0000,-740.5000,-479.5000,-15.0000,-306.5000,-1842.0000
353.0000,-734.5000,-454.0000,-15.5000,-276.5000,-1819.0000
354.0000,-708.0000,-439.5000,-15.5000,-249.0000,-1815.0000
355.0000,-691.5000,-433.5000,-15.5000,-227.5000,-1821.5000
356.0000,-688.0000,-439.5000,-15.5000,-216.0000,-1833.0000
357.0000,-698.0000,-448.0000,-15.0000,-210.5000,-1849.5000
358.0000,-719.5000,-458.5000,-15.0000,-208.5000,-1877.0000
359.0000,-742.0000,-459.5000,-14.5000,-209.0000,-1908.5000
360.0000,-763.0000,-445.0000,-14.0000,-206.5000,-1942.5000
361.0000,-790.5000,-442.5000,-13.5000,-214.0000,-1984.5000
362.0000,-826.0000,-450.0000,-13.0000,-241.0000,-2036.0000
363.0000,-831.5000,-453.5000,-13.0000,-261.5000,-2071.0000
364.0000,-803.5000,-443.5000,-13.0000,-257.5000,-2068.5000
365.0000,-770.0000,-432.0000,-13.0000,-251.0000,-2050.0000
366.0000,-734.5000,-419.0000,-13.0000,-242.0000,-2016.5000
367.0000,-715.0000,-415.0000,-13.0000,-239.5000,-1983.0000
368.0000,-708.5000,-418.5000,-12.5000,-249.0000,-1952.0000
369.0000,-686.5000,-402.0000,-12.5000,-248.5000,-1918.5000
370.0000,-656.5000,-372.0000,-12.0000,-236.0000,-1879.0000
371.0000,-625.5000,-337.5000,-12.0000,-218.5000,-1844.0000
372.0000,-592.5000,-299.5000,-11.5000,-201.0000,-1810.5000
373.0000,-577.0000,-272.0000,-11.5000,-187.0000,-1777.5000
374.0000,-572.0000,-248.5000,-11.5000,-174.0000,-1737.5000
375.0000,-575.5000,-235.0000,-11.5000,-164.5000,-1704.5000
376.0000,-586.5000,-225.5000,-11.5000,-158.0000,-1668.5000
377.0000,-603.0000,-213.5000,-11.5000,-152.5000,-1649.0000
378.0000,-623.5000,-198.0000,-11.5000,-147.5000,-1642.0000
379.0000,-636.0000,-179.5000,-11.5000,-139.5000,-1631.0000
380.0000,-644.0000,-163.5000,-11.5000,-123.5000,-1609.0000
381.0000,-647.0000,-159.5000,-10.5000,-121.5000,-1609.5000
382.0000,-649.5000,-160.0000,-10.0000,-130.5000,-1635.5000
383.0000,-646.0000,-154.5000,-9.0000,-132.5000,-1648.5000
384.0000,-640.0000,-144.5000,-7.5000,-125.5000,-1650.5000
385.0000,-624.0000,-130.5000,-6.5000,-123.0000,-1636.5000
386.0000,-605.0000,-115.5000,-5.5000,-126.0000,-1609.5000
387.0000,-587.5000,-108.0000,-4.5000,-122.0000,-1570.0000
388.0000,-573.5000,-104.0000,-3.5000,-112.0000,-1514.0000
389.0000,-570.5000,-108.0000,-2.5000,-105.0000,-1463.5000
390.0000,-578.0000,-112.0000,-1.5000,-97.0000,-1410.5000
391.0000,-606.5000,-110.5000,-1.0000,-84.5000,-1367.0000
392.0000,-633.0000,-105.0000,-0.5000,-72.5000,-1326.5000
393.0000,-629.0000,-100.5000,0.0000,-67.0000,-1298.5000
394.0000,-612.0000,-98.5000,0.5000,-66.5000,-1274.5000
395.0000,-583.5000,-100.0000,1.0000,-60.0000,-1253.0000
396.0000,-565.0000,-105.5000,1.5000,-48.5000,-1228.5000
397.0000,-574.0000,-112.5000,1.5000,-48.0000,-1214.0000
398.0000,-581.0000,-116.0000,2.0000,-52.5000,-1199.5000
399.0000,-557.0000,-105.0000,2.0000,-41.0000,-1158.0000
400.0000,-525.5000,-90.5000,1.5000,-20.5000,-1098.5000
401.0000,-488.0000,-79.5000,1.5000,-20.0000,-1062.0000
402.0000,-462.0000,-73.5000,1.5000,-29.0000,-1035.5000
403.0000,-457.5000,-76.0000,1.0000,-34.5000,-1017.5000
404.0000,-454.0000,-78.0000,1.0000,-39.5000,-999.5000
405.0000,-436.5000,-69.5000,1.0000,-44.0000,-961.0000
406.0000,-405.0000,-54.5000,0.5000,-43.0000,-913.0000
407.0000,-353.5000,-35.5000,0.0000,-31.5000,-869.0000
408.0000,-298.5000,-14.0000,0.0000,-20.0000,-832.0000
409.0000,-239.5000,6.0000,-0.5000,-16.5000,-808.5000
410.0000,-181.0000,27.0000,-1.0000,-15.0000,-792.0000
411.0000,-110.0000,46.5000,-2.0000,-14.0000,-780.5000
412.0000,-45.0000,72.0000,-2.5000,-7.0000,-766.0000
413.0000,25.5000,110.0000,-3.5000,16.0000,-740.5000
414.0000,83.5000,130.0000,-4.0000,30.0000,-724.0000
415.0000,142.5000,132.0000,-4.5000,15.5000,-737.5000
416.0000,184.5000,140.0000,-5.0000,6.5000,-750.0000
417.0000,214.5000,159.0000,-5.0000,17.5000,-747.5000
418.0000,233.5000,166.0000,-5.0000,27.5000,-743.0000
419.0000,253.5000,161.0000,-5.0000,17.5000,-740.5000
420.0000,276.0000,151.0000,-5.5000,8.0000,-738.0000
421.0000,311.5000,139.5000,-6.5000,11.5000,-732.5000
422.0000,342.0000,142.0000,-7.5000,20.5000,-718.5000
423.0000,372.5000,160.0000,-8.5000,32.0000,-681.0000
424.0000,358.0000,161.0000,-9.5000,33.5000,-651.0000
425.0000,307.0000,150.5000,-10.5000,17.0000,-636.5000
426.0000,319.0000,167.5000,-11.0000,10.0000,-619.5000
427.0000,387.5000,209.5000,-11.5000,32.5000,-589.5000
428.0000,451.5000,246.0000,-12.0000,56.5000,-560.5000
429.0000,514.0000,282.0000,-11.5000,81.5000,-527.0000
430.0000,556.0000,304.5000,-11.0000,95.5000,-504.0000
431.0000,591.5000,320.0000,-10.5000,96.0000,-494.0000
432.0000,632.0000,325.5000,-10.0000,95.0000,-485.0000
433.0000,679.5000,325.5000,-9.5000,91.0000,-469.0000
434.0000,724.5000,344.0000,-9.5000,92.5000,-449.5000
435.0000,763.5000,370.0000,-9.0000,102.5000,-428.0000
436.0000,756.0000,378.0000,-8.5000,107.5000,-409.5000
437.0000,728.0000,376.0000,-8.5000,99.0000,-401.0000
438.0000,711.0000,375.5000,-8.0000,98.0000,-388.0000
439.0000,707.0000,379.5000,-8.0000,104.0000,-370.0000
440.0000,706.5000,381.0000,-8.0000,108.0000,-349.0000
441.0000,711.0000,382.0000,-7.5000,110.0000,-325.0000
442.0000,727.5000,380.5000,-7.0000,116.0000,-295.5000
443.0000,743.0000,379.5000,-6.5000,128.5000,-261.5000
444.0000,727.0000,390.0000,-6.0000,132.5000,-240.5000
445.0000,689.0000,405.5000,-5.5000,128.5000,-228.5000
446.0000,627.0000,419.5000,-5.0000,128.0000,-230.0000
447.0000,555.5000,432.5000,-4.5000,125.0000,-240.5000
448.0000,488.0000,448.0000,-4.5000,126.5000,-252.0000
449.0000,430.0000,465.5000,-5.0000,128.5000,-265.0000
450.0000,416.5000,490.0000,-5.0000,131.5000,-273.0000
451.0000,408.0000,511.0000,-6.0000,136.0000,-282.0000
452.0000,374.0000,524.0000,-6.5000,136.5000,-290.5000
453.0000,340.5000,534.0000,-7.5000,134.5000,-296.0000
454.0000,337.5000,548.5000,-8.0000,143.0000,-289.0000
455.0000,340.5000,561.5000,-8.5000,157.5000,-271.5000
456.0000,344.5000,560.0000,-9.0000,157.0000,-265.0000
457.0000,343.0000,553.5000,-9.5000,149.5000,-257.0000
458.0000,342.0000,555.0000,-10.0000,149.5000,-228.0000
459.0000,347.5000,556.0000,-10.0000,153.0000,-191.5000
460.0000,366.0000,555.0000,-10.5000,151.0000,-161.0000
461.0000,384.5000,553.5000,-10.5000,146.0000,-134.5000
462.0000,388.0000,547.5000,-10.5000,154.5000,-115.0000
463.0000,401.0000,545.0000,-11.0000,171.0000,-98.0000
464.0000,440.0000,561.0000,-11.0000,183.5000,-87.0000
465.0000,479.5000,579.5000,-10.5000,193.0000,-79.5000
466.0000,505.0000,592.5000,-9.5000,198.5000,-68.0000
467.0000,524.0000,599.5000,-8.5000,201.5000,-58.0000
468.0000,540.0000,598.0000,-7.5000,196.5000,-62.0000
469.0000,558.0000,599.0000,-6.5000,194.0000,-63.5000
470.0000,589.0000,614.5000,-5.5000,198.5000,-51.0000
471.0000,606.0000,629.5000,-5.0000,205.5000,-33.0000
472.0000,606.5000,646.0000,-5.0000,215.0000,-6.0000
473.0000,605.5000,658.0000,-4.5000,222.5000,16.0000
474.0000,607.0000,664.0000,-4.5000,220.5000,36.0000
475.0000,609.0000,676.0000,-4.0000,217.5000,51.5000
476.0000,624.0000,702.0000,-3.0000,219.5000,73.0000
477.0000,673.0000,721.0000,-2.5000,221.5000,90.5000
478.0000,782.5000,735.0000,-1.5000,222.5000,97.0000
479.0000,854.5000,745.0000,-1.0000,225.0000,105.5000
480.0000,899.5000,753.0000,0.0000,228.0000,124.0000
481.0000,909.0000,765.0000,0.0000,232.0000,144.5000
482.0000,895.5000,785.0000,1.0000,240.0000,164.5000
483.0000,899.0000,797.0000,2.0000,246.5000,176.0000
484.0000,918.5000,804.0000,3.0000,240.5000,175.5000
485.0000,933.0000,820.5000,3.5000,238.0000,174.5000
486.0000,934.0000,843.0000,3.5000,245.0000,181.0000
487.0000,928.5000,861.0000,4.0000,250.0000,182.5000
488.0000,909.5000,874.0000,3.5000,252.0000,179.0000
489.0000,918.0000,863.5000,3.5000,251.0000,167.5000
490.0000,939.0000,834.5000,3.0000,247.0000,138.5000
491.0000,938.0000,820.0000,2.5000,246.0000,128.0000
492.0000,917.5000,816.5000,1.5000,246.0000,146.0000
493.0000,903.0000,804.0000,0.5000,243.5000,159.0000
494.0000,884.5000,782.5000,0.0000,241.0000,155.0000
495.0000,820.5000,762.5000,-0.5000,240.0000,145.5000
496.0000,725.5000,744.5000,-1.5000,244.5000,129.5000
497.0000,640.0000,747.5000,-2.0000,246.5000,120.5000
498.0000,567.5000,762.5000,-3.0000,246.0000,116.0000
499.0000,560.0000,765.0000,-3.5000,245.0000,107.0000
500.0000,586.5000,760.0000,-4.5000,243.0000,89.5000
501.0000,621.5000,757.5000,-4.5000,232.0000,83.5000
502.0000,654.0000,758.0000,-5.0000,213.5000,89.0000
503.0000,646.5000,758.0000,-5.0000,203.5000,79.0000
504.0000,627.5000,758.0000,-5.0000,200.0000,47.0000
505.0000,626.0000,760.5000,-5.5000,205.0000,12.5000
506.0000,637.5000,763.0000,-5.5000,214.5000,-23.0000
507.0000,665.0000,768.0000,-5.5000,214.5000,-41.5000
508.0000,691.5000,779.5000,-5.5000,208.5000,-45.5000
509.0000,698.5000,809.5000,-5.0000,201.0000,-39.0000
510.0000,686.0000,833.5000,-5.0000,192.5000,-30.0000
511.0000,647.0000,808.5000,-4.5000,171.5000,-50.0000
512.0000,608.0000,774.0000,-4.5000,138.5000,-93.0000
513.0000,595.0000,778.0000,-4.5000,138.5000,-100.5000
514.0000,578.5000,796.0000,-4.5000,154.5000,-88.5000
515.0000,538.0000,820.0000,-4.5000,154.5000,-72.0000
516.0000,498.5000,844.0000,-4.5000,144.5000,-51.5000
517.0000,484.0000,871.5000,-4.0000,143.0000,-28.0000
518.0000,472.0000,885.0000,-4.0000,148.0000,-2.0000
519.0000,460.0000,868.0000,-3.5000,157.0000,6.5000
520.0000,454.5000,838.0000,-3.5000,166.0000,7.5000
521.0000,474.5000,790.0000,-3.5000,171.0000,5.5000
522.0000,498.0000,744.5000,-3.0000,170.0000,2.5000
523.0000,522.5000,688.5000,-3.0000,165.5000,0.5000
524.0000,545.0000,641.5000,-3.0000,163.5000,2.0000
525.0000,565.5000,604.5000,-2.5000,170.5000,1.5000
526.0000,574.0000,577.0000,-2.0000,177.5000,4.5000
527.0000,565.5000,553.0000,-1.5000,176.5000,34.0000
528.0000,559.0000,563.0000,-1.0000,170.5000,79.5000
529.0000,546.0000,638.0000,-0.5000,166.0000,156.0000
530.0000,535.0000,693.0000,-0.5000,163.5000,230.5000
531.0000,513.5000,715.5000,0.0000,169.5000,271.0000
532.0000,505.0000,728.5000,0.0000,176.0000,297.5000
533.0000,507.0000,755.5000,0.0000,181.5000,327.5000
534.0000,491.0000,786.0000,0.5000,182.5000,353.0000
535.0000,442.5000,829.5000,1.0000,171.5000,357.5000
536.0000,404.0000,844.0000,1.5000,162.5000,360.0000
537.0000,373.5000,816.0000,2.5000,162.0000,371.5000
538.0000,329.0000,799.5000,4.0000,160.0000,383.5000
539.0000,259.5000,796.5000,5.0000,151.5000,396.0000
540.0000,192.0000,792.0000,5.5000,145.5000,401.0000
541.0000,116.0000,775.5000,6.0000,143.0000,390.5000
542.0000,34.5000,750.0000,6.0000,144.0000,384.0000
543.0000,-66.5000,705.0000,6.0000,145.5000,387.0000
544.0000,-183.0000,674.5000,6.0000,145.0000,391.5000
545.0000,-333.5000,640.0000,6.0000,147.0000,394.5000
546.0000,-478.0000,591.5000,6.5000,146.5000,392.5000
547.0000,-645.5000,515.5000,6.5000,132.5000,374.0000
548.0000,-768.0000,493.0000,6.5000,122.5000,365.5000
549.0000,-883.5000,510.5000,6.5000,122.5000,384.5000
550.0000,-957.0000,511.0000,6.5000,122.0000,384.5000
551.0000,-1009.5000,499.5000,6.5000,124.0000,359.0000
552.0000,-1007.5000,465.5000,6.5000,124.5000,337.0000
553.0000,-976.0000,424.5000,6.5000,126.0000,327.5000
554.0000,-965.0000,457.0000,6.0000,127.5000,335.0000
555.0000,-969.5000,539.0000,6.0000,128.5000,368.0000
556.0000,-986.5000,547.5000,5.5000,128.0000,398.0000
557.0000,-1016.5000,515.5000,5.5000,124.0000,429.0000
558.0000,-1063.5000,524.0000,5.0000,118.0000,460.5000
559.0000,-1122.0000,568.5000,4.5000,109.5000,501.5000
560.0000,-1217.0000,639.5000,4.5000,96.5000,535.0000
561.0000,-1324.0000,720.5000,4.0000,80.0000,563.5000
562.0000,-1416.5000,756.0000,3.5000,73.5000,596.0000
563.0000,-1502.0000,769.5000,3.0000,76.5000,642.0000
564.0000,-1585.5000,791.0000,3.0000,74.5000,681.5000
565.0000,-1662.5000,813.0000,2.5000,66.0000,718.0000
566.0000,-1697.0000,817.5000,2.0000,59.0000,747.0000
567.0000,-1704.0000,810.0000,2.0000,54.0000,771.5000
568.0000,-1650.0000,785.0000,2.0000,49.5000,771.0000
569.0000,-1579.0000,748.5000,1.5000,49.5000,756.5000
570.0000,-1483.5000,708.5000,1.5000,55.0000,752.0000
571.0000,-1402.5000,664.0000,1.0000,64.0000,759.0000
572.0000,-1359.0000,622.5000,1.0000,64.5000,807.5000
573.0000,-1343.5000,582.5000,0.5000,60.0000,885.5000
574.0000,-1362.5000,562.0000,0.5000,54.5000,948.0000
575.0000,-1394.5000,555.0000,0.5000,49.0000,1007.5000
576.0000,-1441.5000,584.0000,0.5000,45.5000,1070.5000
577.0000,-1490.5000,623.5000,0.5000,42.5000,1145.5000
578.0000,-1542.5000,684.0000,0.5000,41.5000,1226.5000
579.0000,-1587.5000,722.5000,0.0000,38.5000,1313.0000
580.0000,-1657.5000,677.5000,0.5000,40.0000,1390.0000
581.0000,-1731.5000,640.0000,0.5000,40.0000,1466.0000
582.0000,-1843.5000,652.5000,0.5000,43.5000,1548.0000
583.0000,-1924.5000,690.0000,1.0000,50.0000,1638.0000
584.0000,-1963.5000,748.5000,1.0000,59.0000,1707.5000
585.0000,-1957.5000,799.5000,1.0000,67.0000,1774.0000
586.0000,-1893.0000,834.5000,1.0000,69.0000,1854.0000
587.0000,-1830.0000,853.5000,1.0000,68.0000,1939.0000
588.0000,-1759.5000,851.5000,1.5000,63.5000,2015.5000
589.0000,-1697.5000,858.5000,2.0000,60.0000,2088.5000
590.0000,-1626.5000,877.5000,2.5000,59.0000,2154.0000
591.0000,-1602.5000,895.0000,3.5000,60.0000,2209.0000
592.0000,-1624.0000,911.0000,4.5000,54.5000,2242.0000
593.0000,-1671.0000,914.5000,5.5000,49.5000,2265.0000
594.0000,-1739.0000,914.5000,6.5000,51.5000,2277.5000
595.0000,-1819.0000,894.5000,7.5000,49.5000,2280.0000
596.0000,-1928.5000,850.5000,8.5000,31.5000,2264.5000
597.0000,-2011.5000,825.0000,9.5000,19.5000,2254.0000
598.0000,-2084.0000,824.5000,10.5000,22.5000,2263.0000
599.0000,-2124.0000,818.0000,11.0000,26.0000,2271.0000
600.0000,-2158.5000,799.0000,11.5000,17.0000,2272.0000
601.0000,-2189.5000,788.0000,11.5000,9.5000,2276.0000
602.0000,-2247.0000,788.0000,11.5000,10.0000,2297.0000
603.0000,-2288.0000,808.5000,11.5000,15.0000,2329.0000
604.0000,-2340.5000,846.5000,12.0000,23.0000,2383.5000
605.0000,-2419.5000,872.0000,13.0000,23.5000,2415.0000
606.0000,-2546.5000,882.5000,14.0000,4.0000,2398.5000
607.0000,-2655.5000,885.0000,15.5000,-8.0000,2380.0000
608.0000,-2773.0000,880.5000,16.5000,-1.5000,2367.0000
609.0000,-2883.5000,857.0000,18.0000,-4.0000,2347.0000
610.0000,-2999.0000,814.5000,19.0000,-31.5000,2298.0000
611.0000,-3053.5000,767.5000,20.0000,-57.0000,2263.5000
612.0000,-3065.5000,713.5000,21.0000,-75.0000,2247.0000
613.0000,-3098.5000,671.0000,21.5000,-87.5000,2238.0000
614.0000,-3144.5000,630.5000,21.5000,-103.5000,2230.5000
615.0000,-3190.0000,592.5000,22.0000,-111.5000,2213.5000
616.0000,-3224.0000,554.5000,22.0000,-113.5000,2178.5000
617.0000,-3228.0000,523.0000,21.5000,-112.0000,2137.5000
618.0000,-3204.0000,498.5000,20.5000,-111.5000,2083.5000
619.0000,-3189.5000,462.5000,20.0000,-121.0000,2033.0000
620.0000,-3175.5000,420.5000,19.5000,-146.0000,1974.5000
621.0000,-3154.5000,390.5000,19.0000,-160.5000,1932.0000
622.0000,-3135.5000,365.5000,18.5000,-165.0000,1900.0000
623.0000,-3113.0000,360.5000,18.0000,-173.0000,1875.0000
624.0000,-3097.0000,363.0000,18.0000,-189.0000,1854.5000
625.0000,-3067.0000,365.0000,17.5000,-194.5000,1858.0000
626.0000,-3052.0000,360.0000,17.0000,-189.5000,1883.5000
627.0000,-3083.5000,333.0000,16.0000,-187.5000,1905.5000
628.0000,-3141.0000,302.0000,15.0000,-190.0000,1924.5000
629.0000,-3201.0000,299.5000,14.0000,-194.0000,1938.5000
630.0000,-3268.5000,305.5000,13.0000,-196.5000,1952.0000
631.0000,-3339.0000,301.0000,12.0000,-207.0000,1951.0000
632.0000,-3408.0000,297.5000,11.5000,-221.5000,1940.0000
633.0000,-3463.0000,320.5000,11.0000,-228.5000,1936.0000
634.0000,-3507.5000,347.5000,11.0000,-230.0000,1932.5000
635.0000,-3542.5000,367.5000,10.5000,-229.5000,1919.0000
636.0000,-3563.0000,371.5000,10.0000,-229.0000,1898.5000
637.0000,-3567.0000,348.5000,10.0000,-228.5000,1895.0000
638.0000,-3554.5000,323.5000,10.5000,-231.5000,1899.5000
639.0000,-3527.0000,305.5000,11.0000,-228.5000,1928.5000
640.0000,-3463.5000,294.5000,11.5000,-227.0000,1966.5000
641.0000,-3327.0000,285.0000,12.5000,-227.0000,1996.5000
642.0000,-3189.5000,287.5000,13.0000,-228.0000,2022.0000
643.0000,-3066.5000,309.0000,13.0000,-225.0000,2032.0000
644.0000,-2979.5000,333.5000,13.5000,-219.0000,2035.5000
645.0000,-2937.5000,357.0000,13.5000,-212.0000,2037.5000
646.0000,-2911.0000,370.5000,14.0000,-210.0000,2040.0000
647.0000,-2894.0000,361.5000,14.0000,-227.5000,2043.5000
648.0000,-2874.0000,356.0000,14.0000,-241.0000,2055.0000
649.0000,-2835.5000,366.0000,14.0000,-220.0000,2088.5000
650.0000,-2807.5000,371.5000,14.0000,-191.0000,2127.5000
651.0000,-2778.0000,361.5000,14.0000,-177.5000,2147.0000
652.0000,-2768.5000,338.5000,14.0000,-173.0000,2153.5000
653.0000,-2774.5000,295.0000,14.5000,-174.0000,2141.0000
654.0000,-2778.5000,246.5000,14.5000,-175.0000,2128.5000
655.0000,-2768.0000,182.0000,15.0000,-166.0000,2134.5000
656.0000,-2741.0000,145.5000,15.0000,-161.5000,2146.0000
657.0000,-2683.5000,145.5000,15.5000,-173.0000,2170.0000
658.0000,-2622.5000,142.5000,15.5000,-185.5000,2181.0000
659.0000,-2549.0000,128.0000,15.5000,-203.0000,2159.5000
660.0000,-2481.0000,125.5000,15.5000,-211.0000,2139.5000
661.0000,-2409.5000,141.5000,15.5000,-195.0000,2143.0000
662.0000,-2345.5000,143.0000,15.0000,-185.0000,2146.0000
663.0000,-2275.5000,124.5000,14.5000,-196.5000,2142.0000
664.0000,-2198.0000,100.5000,13.5000,-204.0000,2136.0000
665.0000,-2103.5000,66.0000,12.5000,-199.5000,2128.5000
666.0000,-2027.0000,44.0000,12.0000,-199.0000,2124.0000
667.0000,-1944.5000,36.0000,11.0000,-205.5000,2131.5000
668.0000,-1861.5000,36.0000,11.0000,-214.5000,2143.0000
669.0000,-1767.0000,34.5000,10.5000,-230.5000,2157.0000
670.0000,-1699.0000,6.5000,10.5000,-244.0000,2166.0000
671.0000,-1636.5000,-37.0000,10.0000,-252.0000,2166.5000
672.0000,-1580.0000,-48.0000,9.0000,-254.0000,2173.0000
673.0000,-1515.0000,-37.5000,8.5000,-243.0000,2195.0000
674.0000,-1458.5000,-32.5000,7.5000,-235.5000,2219.0000
675.0000,-1399.0000,-35.0000,7.0000,-235.5000,2243.5000
676.0000,-1349.5000,-39.0000,7.0000,-234.5000,2255.5000
677.0000,-1294.0000,-42.5000,7.0000,-230.0000,2251.0000
678.0000,-1232.0000,-49.0000,7.5000,-229.0000,2243.5000
679.0000,-1159.0000,-55.0000,7.5000,-228.0000,2238.0000
680.0000,-1090.5000,-70.5000,8.0000,-233.0000,2227.5000
681.0000,-1023.5000,-91.5000,8.0000,-251.0000,2205.5000
682.0000,-959.5000,-105.0000,7.5000,-263.0000,2186.0000
683.0000,-893.5000,-117.0000,7.0000,-268.5000,2173.0000
684.0000,-822.0000,-129.0000,6.5000,-262.5000,2160.0000
685.0000,-751.0000,-144.5000,6.0000,-252.0000,2147.5000
686.0000,-680.0000,-167.0000,6.0000,-250.0000,2135.0000
687.0000,-615.5000,-192.0000,5.5000,-261.5000,2118.5000
688.0000,-559.5000,-219.0000,5.5000,-263.5000,2115.0000
689.0000,-515.0000,-248.0000,5.5000,-256.5000,2121.0000
690.0000,-494.5000,-275.0000,5.5000,-261.0000,2122.5000
691.0000,-473.5000,-298.5000,6.0000,-269.0000,2120.0000
692.0000,-426.5000,-303.0000,6.0000,-273.5000,2117.5000
693.0000,-377.0000,-306.5000,5.5000,-277.0000,2113.0000
694.0000,-333.5000,-331.5000,5.5000,-282.0000,2099.5000
695.0000,-294.0000,-358.5000,5.5000,-286.0000,2080.5000
696.0000,-276.0000,-386.0000,5.0000,-282.0000,2079.5000
697.0000,-255.5000,-408.0000,4.5000,-273.5000,2087.0000
698.0000,-200.5000,-412.5000,4.0000,-264.5000,2093.5000
699.0000,-135.5000,-417.0000,3.5000,-253.0000,2097.0000
700.0000,-58.0000,-428.0000,3.5000,-237.5000,2091.0000
701.0000,8.5000,-435.5000,3.5000,-222.5000,2076.0000
702.0000,60.5000,-437.0000,4.0000,-224.5000,2032.0000
703.0000,88.0000,-440.0000,4.5000,-233.0000,1973.5000
704.0000,76.5000,-455.0000,5.5000,-241.0000,1915.0000
705.0000,48.0000,-467.0000,6.5000,-240.0000,1862.5000
706.0000,-13.5000,-476.0000,7.0000,-233.0000,1820.5000
707.0000,-38.0000,-483.0000,7.5000,-223.5000,1784.0000
708.0000,5.0000,-490.5000,8.0000,-213.5000,1755.5000
709.0000,47.0000,-504.0000,8.0000,-204.5000,1726.5000
710.0000,77.5000,-531.0000,8.5000,-207.5000,1683.5000
711.0000,85.5000,-544.5000,9.5000,-215.0000,1639.0000
712.0000,66.5000,-542.0000,10.5000,-218.5000,1594.5000
713.0000,69.0000,-533.5000,11.0000,-221.5000,1554.0000
714.0000,110.5000,-520.5000,12.0000,-225.5000,1514.5000
715.0000,167.0000,-504.0000,12.5000,-226.5000,1478.0000
716.0000,251.5000,-477.0000,12.5000,-219.0000,1443.0000
717.0000,305.0000,-460.5000,13.0000,-212.0000,1406.5000
718.0000,332.5000,-446.5000,12.5000,-205.5000,1366.5000
719.0000,346.0000,-439.5000,12.0000,-202.0000,1323.5000
720.0000,349.0000,-428.5000,11.5000,-196.0000,1273.5000
721.0000,326.0000,-434.0000,11.0000,-193.5000,1222.0000
722.0000,274.0000,-456.0000,11.0000,-205.5000,1148.0000
723.0000,240.0000,-465.0000,10.5000,-207.0000,1093.5000
724.0000,215.0000,-461.5000,10.0000,-197.5000,1062.0000
725.0000,206.5000,-448.0000,9.5000,-190.0000,1036.5000
726.0000,198.5000,-433.0000,9.0000,-192.5000,1007.0000
727.0000,188.0000,-428.0000,8.5000,-193.0000,977.0000
728.0000,172.5000,-433.5000,8.0000,-191.0000,937.0000
729.0000,172.0000,-423.0000,7.5000,-179.0000,913.5000
730.0000,178.5000,-403.0000,7.5000,-144.0000,910.0000
731.0000,158.0000,-404.0000,7.0000,-130.0000,893.5000
732.0000,122.0000,-417.5000,7.0000,-144.0000,852.5000
733.0000,98.5000,-422.5000,7.0000,-155.0000,817.5000
734.0000,86.0000,-418.5000,6.5000,-159.0000,791.5000
735.0000,81.0000,-414.0000,6.0000,-160.0000,771.0000
736.0000,79.0000,-410.0000,5.5000,-154.0000,748.5000
737.0000,81.5000,-397.0000,5.5000,-149.5000,732.5000
738.0000,87.5000,-377.5000,5.5000,-140.5000,723.5000
739.0000,101.0000,-364.5000,6.0000,-135.5000,717.0000
740.0000,121.5000,-352.5000,6.0000,-128.5000,716.5000
741.0000,147.0000,-350.0000,6.5000,-126.0000,713.0000
742.0000,180.5000,-347.0000,7.0000,-125.0000,703.5000
743.0000,231.5000,-340.0000,7.5000,-119.5000,701.5000
744.0000,287.5000,-329.5000,8.0000,-108.0000,703.0000
745.0000,317.0000,-331.0000,8.5000,-110.0000,691.0000
746.0000,334.5000,-342.0000,8.5000,-123.0000,662.5000
747.0000,334.5000,-363.5000,8.0000,-137.0000,639.0000
748.0000,333.5000,-383.0000,7.5000,-153.5000,615.0000
749.0000,357.0000,-376.5000,7.0000,-162.0000,595.0000
750.0000,386.5000,-362.5000,6.5000,-161.0000,574.0000
751.0000,414.0000,-348.0000,6.0000,-165.5000,545.0000
752.0000,431.5000,-339.0000,5.5000,-170.0000,508.0000
753.0000,438.5000,-341.5000,5.0000,-182.0000,476.5000
754.0000,450.5000,-347.0000,4.5000,-197.0000,447.0000
755.0000,471.5000,-347.0000,4.5000,-197.0000,420.5000
756.0000,493.0000,-352.5000,4.5000,-193.0000,391.0000
757.0000,510.5000,-366.0000,4.5000,-190.0000,364.0000
758.0000,522.5000,-376.0000,4.5000,-187.0000,339.0000
759.0000,532.0000,-366.5000,4.5000,-188.5000,344.5000
760.0000,542.0000,-351.0000,5.0000,-190.0000,365.0000
761.0000,560.0000,-337.5000,5.0000,-193.0000,384.5000
762.0000,578.5000,-329.0000,5.5000,-196.5000,398.5000
763.0000,587.0000,-335.5000,5.5000,-199.5000,388.5000
764.0000,594.5000,-333.5000,5.5000,-202.5000,368.0000
765.0000,607.0000,-311.0000,5.0000,-204.5000,344.0000
766.0000,608.0000,-296.5000,4.5000,-208.0000,317.0000
767.0000,585.0000,-302.0000,4.0000,-220.5000,283.0000
768.0000,575.5000,-298.5000,3.0000,-232.5000,252.0000
769.0000,590.5000,-272.0000,2.5000,-218.5000,258.5000
770.0000,606.5000,-238.0000,2.0000,-202.0000,272.0000
771.0000,612.0000,-200.0000,1.5000,-196.0000,271.0000
772.0000,621.0000,-162.0000,2.0000,-193.0000,262.5000
773.0000,645.5000,-105.0000,2.5000,-168.5000,255.5000
774.0000,655.5000,-69.5000,3.0000,-145.5000,253.0000
775.0000,652.5000,-58.5000,4.0000,-144.5000,252.0000
776.0000,645.0000,-56.0000,5.0000,-148.5000,255.0000
777.0000,635.0000,-55.0000,6.0000,-152.5000,263.0000
778.0000,636.5000,-55.0000,6.5000,-156.0000,267.0000
779.0000,653.5000,-52.0000,7.0000,-148.0000,263.0000
780.0000,663.5000,-55.0000,8.0000,-140.5000,256.0000
781.0000,666.5000,-65.5000,8.5000,-141.0000,238.5000
782.0000,679.5000,-60.5000,9.0000,-141.0000,224.5000
783.0000,707.0000,-37.0000,9.5000,-130.0000,227.0000
784.0000,725.5000,-22.5000,10.5000,-120.5000,233.0000
785.0000,738.5000,-18.0000,11.0000,-119.0000,238.0000
786.0000,767.0000,4.0000,11.5000,-110.5000,254.5000
787.0000,809.0000,43.0000,11.5000,-94.5000,286.0000
788.0000,831.5000,66.0000,12.0000,-87.5000,299.0000
789.0000,842.0000,77.0000,12.0000,-92.0000,288.5000
790.0000,863.0000,87.0000,12.5000,-91.5000,279.5000
791.0000,892.0000,96.5000,13.0000,-81.0000,273.0000
792.0000,914.0000,105.0000,13.5000,-76.5000,267.5000
793.0000,933.5000,111.5000,14.0000,-81.5000,262.0000
794.0000,944.5000,107.0000,14.5000,-86.0000,256.5000
795.0000,953.5000,98.5000,14.5000,-91.0000,248.0000
796.0000,959.5000,85.0000,14.5000,-92.0000,248.0000
797.0000,965.0000,67.0000,14.5000,-92.0000,259.5000
798.0000,976.5000,59.0000,14.0000,-92.5000,274.5000
799.0000,987.0000,50.0000,13.5000,-88.0000,294.0000
800.0000,996.0000,22.0000,13.0000,-92.5000,277.5000
801.0000,1004.0000,-10.0000,12.5000,-107.0000,222.5000
802.0000,1005.5000,-32.0000,12.5000,-114.5000,177.5000
803.0000,1004.5000,-54.5000,13.0000,-120.0000,137.0000
804.0000,995.5000,-70.0000,13.5000,-122.5000,115.5000
805.0000,988.5000,-89.5000,14.0000,-123.0000,102.5000
806.0000,999.5000,-129.5000,14.5000,-121.0000,71.0000
807.0000,1015.5000,-177.0000,15.0000,-118.0000,19.5000
808.0000,1016.5000,-216.0000,15.5000,-117.0000,-19.5000
809.0000,1010.0000,-246.5000,16.0000,-119.0000,-56.5000
810.0000,998.0000,-254.0000,16.0000,-121.5000,-74.0000
811.0000,988.0000,-262.0000,16.0000,-120.5000,-84.5000
812.0000,979.5000,-301.5000,16.0000,-123.5000,-113.5000
813.0000,964.5000,-342.5000,16.0000,-130.0000,-155.5000
814.0000,928.5000,-343.5000,16.0000,-147.0000,-151.0000
815.0000,886.5000,-338.0000,16.0000,-169.0000,-119.0000
816.0000,844.5000,-346.5000,16.0000,-173.0000,-79.0000
817.0000,812.0000,-361.0000,16.5000,-167.5000,-34.5000
818.0000,799.0000,-382.0000,17.0000,-147.0000,-10.0000
819.0000,777.0000,-380.0000,17.5000,-124.0000,5.0000
820.0000,719.0000,-312.0000,18.5000,-132.0000,5.0000
821.0000,668.5000,-244.0000,19.0000,-152.5000,2.0000
822.0000,633.0000,-195.5000,19.5000,-159.5000,3.5000
823.0000,600.5000,-157.5000,20.0000,-159.0000,14.0000
824.0000,556.5000,-117.0000,20.5000,-154.0000,29.0000
825.0000,518.5000,-82.0000,21.0000,-148.5000,45.0000
826.0000,485.0000,-59.5000,21.0000,-148.0000,50.0000
827.0000,461.0000,-53.0000,21.0000,-150.5000,51.0000
828.0000,443.5000,-75.0000,20.5000,-153.5000,39.0000
829.0000,433.0000,-93.0000,20.0000,-153.5000,20.5000
830.0000,421.5000,-110.0000,19.5000,-144.0000,-13.5000
831.0000,420.0000,-141.5000,19.0000,-134.5000,-66.0000
832.0000,429.5000,-211.0000,18.5000,-133.5000,-152.5000
833.0000,433.0000,-265.5000,17.5000,-137.5000,-239.0000
834.0000,433.5000,-307.5000,17.0000,-143.0000,-284.0000
835.0000,445.0000,-349.0000,16.5000,-146.0000,-320.5000
836.0000,474.5000,-409.5000,15.5000,-140.0000,-378.5000
837.0000,505.5000,-460.5000,14.5000,-132.5000,-439.5000
838.0000,542.0000,-501.5000,13.5000,-114.5000,-482.5000
839.0000,571.0000,-467.5000,12.5000,-101.5000,-507.0000
840.0000,603.0000,-332.5000,11.5000,-94.0000,-486.0000
841.0000,652.0000,-193.5000,10.5000,-84.0000,-466.5000
842.0000,726.0000,-33.0000,9.5000,-58.0000,-464.5000
843.0000,780.0000,18.0000,9.0000,-32.0000,-476.0000
844.0000,824.0000,-9.5000,8.5000,-11.5000,-517.0000
845.0000,871.0000,-22.0000,8.0000,8.5000,-545.0000
846.0000,927.5000,-9.0000,8.0000,37.0000,-551.0000
847.0000,955.5000,-6.5000,7.5000,60.5000,-560.5000
848.0000,973.5000,-15.5000,7.5000,75.0000,-597.5000
849.0000,1013.5000,5.0000,6.5000,94.5000,-613.5000
850.0000,1079.0000,54.0000,6.0000,137.0000,-597.0000
851.0000,1140.5000,115.0000,5.0000,173.0000,-579.5000
852.0000,1199.0000,181.5000,4.0000,206.0000,-575.5000
853.0000,1225.0000,236.5000,3.5000,230.5000,-584.0000
854.0000,1237.5000,278.5000,2.5000,253.0000,-613.0000
855.0000,1244.5000,299.5000,1.5000,283.5000,-627.5000
856.0000,1253.5000,303.5000,0.0000,334.0000,-622.5000
857.0000,1257.0000,279.5000,-0.5000,385.5000,-631.5000
858.0000,1259.0000,228.0000,-1.5000,449.0000,-659.5000
859.0000,1246.0000,129.5000,-2.0000,515.5000,-696.5000
860.0000,1218.0000,3.0000,-3.0000,596.5000,-748.0000
861.0000,1163.0000,-110.5000,-3.5000,662.0000,-805.5000
862.0000,1090.0000,-212.5000,-3.5000,720.0000,-878.5000
863.0000,979.5000,-275.5000,-3.5000,747.0000,-938.5000
864.0000,849.0000,-311.5000,-3.5000,753.5000,-996.5000
865.0000,680.5000,-314.0000,-3.5000,728.0000,-1065.5000
866.0000,508.5000,-305.0000,-3.5000,673.0000,-1155.0000
867.0000,387.5000,-315.5000,-3.0000,605.0000,-1219.5000
868.0000,286.5000,-342.5000,-2.5000,514.0000,-1281.5000
869.0000,200.0000,-424.0000,-2.5000,429.5000,-1346.0000
870.0000,115.0000,-508.0000,-2.0000,331.0000,-1433.0000
871.0000,21.0000,-545.5000,-1.5000,244.5000,-1514.0000
872.0000,-81.0000,-578.0000,-0.5000,147.5000,-1612.5000
873.0000,-206.5000,-669.0000,0.0000,56.5000,-1713.0000
874.0000,-332.5000,-767.5000,0.0000,-51.0000,-1834.0000
875.0000,-448.5000,-842.5000,0.5000,-175.5000,-1933.5000
876.0000,-540.0000,-898.5000,1.0000,-318.0000,-2025.5000
877.0000,-588.0000,-935.0000,1.0000,-437.0000,-2068.0000
878.0000,-617.5000,-963.5000,1.0000,-554.0000,-2093.0000
879.0000,-630.0000,-974.5000,1.0000,-647.0000,-2120.5000
880.0000,-639.5000,-986.0000,1.0000,-733.5000,-2150.5000
881.0000,-642.5000,-992.0000,0.5000,-808.0000,-2186.5000
882.0000,-645.0000,-1008.0000,0.0000,-875.0000,-2225.5000
883.0000,-650.5000,-1039.5000,0.0000,-930.0000,-2279.5000
884.0000,-664.0000,-1091.5000,-0.5000,-977.5000,-2341.0000
885.0000,-695.0000,-1192.0000,-1.5000,-1017.5000,-2428.0000
886.0000,-707.0000,-1274.0000,-1.5000,-1050.5000,-2509.0000
887.0000,-691.5000,-1321.5000,-2.0000,-1070.5000,-2539.0000
888.0000,-653.5000,-1325.5000,-2.0000,-1081.5000,-2536.5000
889.0000,-591.5000,-1282.0000,-2.0000,-1071.5000,-2469.5000
890.0000,-526.5000,-1223.5000,-2.0000,-1046.0000,-2383.0000
891.0000,-438.5000,-1144.5000,-2.5000,-992.0000,-2279.5000
892.0000,-350.0000,-1037.0000,-3.0000,-920.0000,-2178.0000
893.0000,-234.5000,-866.0000,-3.0000,-800.0000,-2064.0000
894.0000,-159.5000,-744.5000,-2.5000,-693.0000,-1973.0000
895.0000,-114.0000,-676.5000,-1.5000,-639.0000,-1931.0000
896.0000,-85.5000,-638.5000,-0.5000,-602.5000,-1906.0000
897.0000,-53.5000,-610.0000,0.0000,-551.5000,-1861.0000
898.0000,-26.5000,-574.5000,1.5000,-507.0000,-1818.5000
899.0000,10.5000,-522.5000,2.5000,-475.0000,-1775.5000
900.0000,47.5000,-475.5000,3.5000,-449.0000,-1727.5000
901.0000,90.0000,-425.5000,4.0000,-416.5000,-1664.5000
902.0000,112.5000,-400.5000,4.5000,-388.0000,-1604.0000
903.0000,119.0000,-393.5000,4.5000,-365.5000,-1544.5000
904.0000,140.5000,-387.0000,4.5000,-341.5000,-1480.0000
905.0000,173.0000,-376.5000,4.0000,-306.5000,-1387.0000
906.0000,195.5000,-354.0000,4.0000,-277.5000,-1308.5000
907.0000,202.0000,-321.5000,3.5000,-255.5000,-1252.5000
908.0000,207.0000,-304.5000,3.5000,-233.0000,-1193.5000
909.0000,210.0000,-297.5000,3.5000,-209.5000,-1114.5000
910.0000,213.0000,-282.5000,4.0000,-186.0000,-1049.0000
911.0000,207.0000,-261.5000,4.0000,-166.5000,-998.0000
912.0000,190.0000,-253.5000,4.0000,-149.5000,-965.0000
913.0000,164.0000,-255.5000,3.5000,-132.0000,-947.5000
914.0000,147.5000,-250.0000,3.5000,-113.5000,-925.0000
915.0000,131.0000,-241.0000,3.0000,-91.0000,-883.5000
916.0000,76.0000,-233.5000,2.5000,-93.0000,-860.0000
917.0000,-0.5000,-231.0000,2.0000,-122.5000,-852.0000
918.0000,-61.0000,-234.5000,1.5000,-144.5000,-848.0000
919.0000,-114.0000,-240.0000,0.5000,-153.5000,-840.5000
920.0000,-150.5000,-234.5000,0.0000,-165.0000,-833.0000
921.0000,-179.5000,-224.5000,-1.0000,-178.5000,-814.0000
922.0000,-199.0000,-229.5000,-1.5000,-182.5000,-792.5000
923.0000,-215.5000,-245.0000,-2.5000,-174.5000,-766.5000
924.0000,-231.0000,-275.5000,-2.5000,-165.5000,-745.0000
925.0000,-246.0000,-308.0000,-3.0000,-153.5000,-721.5000
926.0000,-265.5000,-334.0000,-3.5000,-146.5000,-693.5000
927.0000,-289.5000,-356.0000,-3.5000,-140.0000,-662.5000
928.0000,-323.0000,-369.0000,-4.0000,-140.0000,-647.5000
929.0000,-353.5000,-371.0000,-4.5000,-140.0000,-643.5000
930.0000,-362.5000,-352.5000,-5.0000,-122.0000,-622.0000
931.0000,-367.0000,-328.0000,-5.5000,-94.0000,-588.5000
932.0000,-377.0000,-314.0000,-6.5000,-71.5000,-556.5000
933.0000,-396.0000,-310.0000,-7.0000,-55.0000,-525.0000
934.0000,-431.5000,-319.0000,-8.0000,-52.5000,-513.0000
935.0000,-468.0000,-332.0000,-8.5000,-59.0000,-514.0000
936.0000,-495.0000,-344.5000,-8.5000,-58.5000,-509.0000
937.0000,-521.5000,-358.0000,-8.0000,-54.5000,-497.0000
938.0000,-561.0000,-374.0000,-7.5000,-61.5000,-492.5000
939.0000,-595.5000,-391.0000,-7.0000,-71.0000,-489.5000
940.0000,-621.5000,-417.0000,-6.5000,-68.0000,-483.0000
941.0000,-634.0000,-447.0000,-6.0000,-61.0000,-470.0000
942.0000,-628.0000,-484.5000,-6.0000,-57.0000,-428.0000
943.0000,-624.5000,-512.5000,-6.0000,-54.5000,-374.0000
944.0000,-631.0000,-524.5000,-5.5000,-64.5000,-343.0000
945.0000,-631.0000,-528.0000,-5.0000,-73.0000,-316.0000
946.0000,-618.5000,-531.0000,-4.5000,-65.0000,-285.0000
947.0000,-600.5000,-535.0000,-3.5000,-49.0000,-248.0000
948.0000,-575.0000,-541.5000,-3.0000,-28.0000,-204.0000
949.0000,-556.0000,-549.5000,-2.0000,-9.5000,-163.0000
950.0000,-544.0000,-565.5000,-1.0000,-0.5000,-133.5000
951.0000,-542.5000,-580.5000,-0.5000,3.5000,-117.0000
952.0000,-553.5000,-600.0000,0.0000,4.5000,-119.0000
953.0000,-561.0000,-615.0000,0.0000,6.5000,-120.5000
954.0000,-562.0000,-632.5000,0.5000,5.0000,-113.0000
955.0000,-557.5000,-646.0000,0.5000,3.0000,-102.5000
956.0000,-540.0000,-653.5000,0.5000,3.0000,-76.5000
957.0000,-528.5000,-663.5000,0.0000,4.5000,-54.5000
958.0000,-519.0000,-677.0000,0.0000,7.5000,-39.5000
959.0000,-508.5000,-678.0000,0.0000,12.0000,-28.0000
960.0000,-496.5000,-668.0000,0.0000,19.0000,-8.5000
961.0000,-485.5000,-672.5000,0.0000,20.5000,11.0000
962.0000,-473.5000,-688.5000,0.5000,13.5000,36.5000
963.0000,-466.0000,-699.5000,0.5000,3.5000,57.5000
964.0000,-461.5000,-705.0000,0.5000,-4.5000,68.5000
965.0000,-451.5000,-699.0000,0.5000,-4.5000,81.5000
966.0000,-439.5000,-683.5000,0.5000,1.0000,103.0000
967.0000,-414.0000,-650.0000,1.0000,15.5000,130.5000
968.0000,-375.5000,-602.5000,1.5000,42.5000,163.5000
969.0000,-361.0000,-589.5000,2.0000,54.5000,180.0000
970.0000,-361.0000,-600.0000,2.5000,46.0000,178.0000
971.0000,-368.5000,-619.0000,3.0000,42.5000,180.5000
972.0000,-375.0000,-641.0000,3.5000,44.0000,187.0000
973.0000,-362.0000,-648.0000,4.0000,48.0000,210.0000
974.0000,-342.5000,-650.5000,4.0000,50.5000,251.0000
975.0000,-334.5000,-637.5000,3.5000,49.5000,275.5000
976.0000,-337.5000,-620.5000,3.5000,46.5000,279.0000
977.0000,-341.0000,-612.0000,3.0000,42.0000,275.0000
978.0000,-345.0000,-606.0000,2.5000,32.5000,264.5000
979.0000,-339.5000,-595.0000,2.0000,29.0000,260.0000
980.0000,-330.0000,-578.5000,2.0000,32.0000,268.5000
981.0000,-325.0000,-545.5000,1.5000,31.5000,279.5000
982.0000,-321.0000,-507.0000,1.5000,29.5000,296.0000
983.0000,-327.5000,-503.0000,1.0000,26.5000,298.5000
984.0000,-340.0000,-513.0000,0.5000,20.5000,289.5000
985.0000,-348.5000,-522.0000,0.5000,8.5000,287.5000
986.0000,-349.5000,-525.5000,1.0000,-6.0000,295.0000
987.0000,-309.0000,-499.5000,1.0000,5.0000,328.0000
988.0000,-259.5000,-467.0000,1.5000,38.5000,381.5000
989.0000,-230.5000,-455.0000,2.5000,49.0000,410.0000
990.0000,-215.0000,-457.5000,3.5000,40.5000,420.5000
991.0000,-203.0000,-485.0000,5.0000,42.0000,412.0000
992.0000,-193.5000,-513.0000,6.0000,47.0000,388.0000
993.0000,-195.0000,-523.0000,7.0000,43.5000,388.0000
994.0000,-193.0000,-522.0000,7.5000,28.5000,402.0000
995.0000,-168.5000,-501.5000,8.0000,32.0000,413.0000
996.0000,-139.5000,-486.5000,8.5000,44.0000,419.0000
997.0000,-112.0000,-503.5000,8.5000,45.5000,400.0000
998.0000,-89.0000,-524.5000,8.5000,41.0000,370.0000
999.0000,-79.0000,-537.5000,8.5000,29.0000,345.0000
1000.0000,-59.5000,-524.5000,8.5000,20.5000,331.0000
1001.0000,-4.0000,-448.5000,8.0000,39.5000,381.0000
1002.0000,45.0000,-396.5000,8.0000,64.5000,448.5000
1003.0000,71.5000,-425.5000,8.0000,69.0000,463.0000
1004.0000,88.5000,-481.0000,7.5000,63.0000,448.5000
1005.0000,106.5000,-565.0000,7.0000,54.5000,386.0000
1006.0000,133.0000,-614.5000,6.5000,48.5000,321.5000
1007.0000,176.5000,-604.5000,5.5000,62.5000,316.5000
1008.0000,212.0000,-584.0000,5.0000,78.0000,334.5000
1009.0000,240.0000,-568.5000,4.0000,85.5000,370.5000
1010.0000,249.0000,-573.0000,3.5000,88.5000,401.5000
1011.0000,235.5000,-610.0000,2.5000,87.5000,386.5000
1012.0000,233.5000,-634.5000,2.0000,90.0000,360.0000
1013.0000,251.5000,-647.0000,1.5000,106.5000,343.0000
1014.0000,259.5000,-610.5000,1.0000,120.0000,346.5000
1015.0000,254.5000,-499.5000,1.0000,114.5000,410.0000
1016.0000,265.5000,-401.0000,1.0000,109.0000,461.5000
1017.0000,295.5000,-308.5000,1.5000,121.5000,454.5000
1018.0000,320.5000,-267.0000,1.5000,130.5000,433.0000
1019.0000,338.0000,-266.5000,1.5000,124.0000,407.0000
1020.0000,372.5000,-272.0000,2.0000,123.5000,390.5000
1021.0000,432.5000,-276.0000,2.0000,147.0000,386.0000
1022.0000,465.0000,-288.0000,2.0000,161.5000,377.5000
1023.0000,474.0000,-309.5000,2.0000,153.0000,352.5000
1024.0000,479.5000,-310.5000,2.0000,144.5000,336.0000
1025.0000,492.0000,-291.5000,1.5000,143.0000,334.0000
1026.0000,506.0000,-260.5000,0.5000,149.0000,338.0000
1027.0000,523.5000,-220.5000,0.0000,167.5000,342.5000
1028.0000,533.5000,-201.5000,0.0000,181.0000,333.0000
1029.0000,535.0000,-203.5000,-0.5000,187.0000,293.5000
1030.0000,533.0000,-225.0000,-1.0000,193.5000,248.5000
1031.0000,535.5000,-265.5000,-1.5000,202.5000,184.5000
1032.0000,555.5000,-311.5000,-1.5000,210.5000,122.5000
1033.0000,590.0000,-369.5000,-2.5000,227.5000,53.0000
1034.0000,620.0000,-422.0000,-3.0000,237.0000,-1.5000
1035.0000,645.0000,-478.0000,-3.5000,236.5000,-52.0000
1036.0000,671.5000,-557.5000,-4.0000,233.5000,-92.0000
1037.0000,698.0000,-653.5000,-4.0000,230.5000,-130.0000
1038.0000,720.0000,-701.0000,-4.5000,227.5000,-146.0000
1039.0000,739.5000,-717.0000,-4.5000,220.5000,-142.5000
1040.0000,762.5000,-681.0000,-4.5000,220.0000,-129.0000
1041.0000,794.0000,-612.5000,-4.5000,226.0000,-106.5000
1042.0000,847.0000,-488.0000,-4.5000,248.5000,-79.5000
1043.0000,906.5000,-348.0000,-4.5000,291.0000,-38.5000
1044.0000,938.5000,-306.5000,-4.5000,311.5000,-24.0000
1045.0000,966.0000,-301.5000,-4.0000,315.0000,-27.0000
1046.0000,992.5000,-284.0000,-3.5000,313.5000,-5.5000
1047.0000,1026.0000,-257.0000,-3.0000,311.0000,37.0000
1048.0000,1085.5000,-237.5000,-2.5000,314.5000,64.5000
1049.0000,1146.0000,-218.0000,-1.5000,324.0000,85.0000
1050.0000,1181.5000,-200.0000,-0.5000,323.5000,98.5000
1051.0000,1210.0000,-178.0000,0.0000,314.5000,108.0000
1052.0000,1249.0000,-134.5000,1.0000,310.5000,127.5000
1053.0000,1290.5000,-92.0000,2.0000,313.5000,152.5000
1054.0000,1333.0000,-69.0000,2.5000,319.0000,154.5000
1055.0000,1375.0000,-54.5000,3.0000,325.5000,140.5000
1056.0000,1422.0000,-33.5000,4.0000,335.0000,139.5000
1057.0000,1464.0000,-24.0000,4.5000,347.0000,140.0000
1058.0000,1507.5000,-37.5000,4.5000,362.5000,133.0000
1059.0000,1548.5000,-56.0000,5.0000,377.5000,116.0000
1060.0000,1584.5000,-64.0000,5.5000,385.0000,88.0000
1061.0000,1613.0000,-78.5000,6.0000,388.5000,51.0000
1062.0000,1640.5000,-116.0000,6.5000,386.5000,11.5000
1063.0000,1668.5000,-152.5000,7.5000,384.5000,-26.0000
1064.0000,1713.5000,-178.5000,8.0000,389.5000,-28.0000
1065.0000,1761.5000,-174.0000,8.5000,394.0000,-13.0000
1066.0000,1822.5000,-113.5000,9.5000,394.5000,26.0000
1067.0000,1868.5000,-38.0000,10.0000,392.5000,74.0000
1068.0000,1900.0000,62.0000,10.5000,391.5000,123.0000
1069.0000,1918.0000,124.0000,10.5000,392.0000,175.0000
1070.0000,1917.5000,131.0000,10.0000,393.0000,244.5000
1071.0000,1958.0000,216.5000,9.5000,395.5000,303.0000
1072.0000,2066.0000,462.5000,8.5000,400.0000,307.5000
1073.0000,2144.0000,611.5000,8.0000,403.5000,306.0000
1074.0000,2188.0000,619.0000,7.5000,397.5000,307.5000
1075.0000,2230.0000,615.0000,7.0000,393.5000,323.5000
1076.0000,2292.5000,638.5000,6.5000,406.0000,367.5000
1077.0000,2343.0000,663.0000,6.5000,422.0000,414.5000
1078.0000,2391.0000,685.5000,6.5000,425.5000,458.0000
1079.0000,2423.5000,703.5000,6.5000,430.0000,501.5000
1080.0000,2449.0000,725.5000,7.0000,432.0000,553.5000
1081.0000,2466.0000,755.5000,7.5000,430.5000,595.5000
1082.0000,2485.0000,795.0000,8.0000,422.5000,636.5000
1083.0000,2516.0000,828.0000,8.0000,422.0000,672.0000
1084.0000,2562.0000,859.0000,8.0000,440.0000,709.0000
1085.0000,2589.0000,872.0000,8.0000,446.0000,731.5000
1086.0000,2608.5000,872.5000,8.0000,428.0000,745.5000
1087.0000,2633.0000,878.0000,8.5000,418.5000,761.0000
1088.0000,2671.0000,894.0000,8.5000,424.0000,796.0000
1089.0000,2712.5000,903.5000,9.0000,426.0000,838.0000
1090.0000,2759.0000,906.5000,9.0000,421.5000,904.0000
1091.0000,2794.0000,898.5000,9.0000,412.5000,970.0000
1092.0000,2830.0000,885.5000,9.0000,396.5000,1053.0000
1093.0000,2885.5000,910.5000,9.0000,397.5000,1139.0000
1094.0000,2958.5000,961.0000,8.5000,418.0000,1240.5000
1095.0000,3003.5000,990.5000,8.5000,431.0000,1331.5000
1096.0000,3036.0000,1008.0000,8.0000,435.5000,1427.0000
1097.0000,3064.5000,1018.0000,7.0000,437.0000,1506.5000
1098.0000,3097.5000,1030.0000,6.5000,441.0000,1586.5000
1099.0000,3132.0000,1053.0000,5.5000,442.0000,1657.0000
1100.0000,3166.5000,1075.0000,5.0000,439.5000,1733.5000
1101.0000,3195.5000,1083.5000,4.0000,436.5000,1792.5000
1102.0000,3224.0000,1083.0000,3.5000,435.5000,1853.0000
1103.0000,3248.5000,1067.5000,3.5000,443.5000,1919.5000
1104.0000,3269.5000,1044.5000,3.0000,457.5000,2006.0000
1105.0000,3274.5000,1035.5000,3.0000,457.0000,2068.0000
1106.0000,3275.5000,1034.0000,3.0000,449.5000,2121.0000
1107.0000,3281.0000,1035.0000,3.5000,443.5000,2155.5000
1108.0000,3284.0000,1030.0000,4.0000,435.5000,2182.5000
1109.0000,3278.0000,1004.0000,4.5000,425.5000,2207.0000
1110.0000,3266.5000,971.0000,5.0000,415.5000,2241.0000
1111.0000,3245.0000,935.5000,5.5000,394.5000,2275.0000
1112.0000,3223.0000,905.0000,6.5000,367.5000,2316.0000
1113.0000,3204.5000,886.5000,7.0000,350.0000,2352.0000
1114.0000,3187.5000,869.5000,7.0000,337.5000,2392.0000
1115.0000,3174.0000,841.0000,7.0000,331.5000,2440.5000
1116.0000,3158.5000,812.0000,6.5000,325.0000,2489.0000
1117.0000,3135.5000,779.5000,6.5000,310.5000,2514.5000
1118.0000,3115.5000,753.0000,6.0000,293.0000,2528.5000
1119.0000,3102.0000,736.0000,5.5000,287.5000,2532.5000
1120.0000,3088.0000,719.0000,5.0000,286.0000,2528.0000
1121.0000,3055.0000,681.0000,4.5000,278.0000,2519.0000
1122.0000,3020.0000,646.5000,4.0000,267.0000,2507.5000
1123.0000,2979.0000,622.5000,3.0000,260.5000,2501.0000
1124.0000,2944.5000,591.5000,2.5000,256.0000,2492.0000
1125.0000,2916.5000,538.0000,1.5000,249.0000,2470.0000
1126.0000,2888.5000,486.0000,1.0000,243.5000,2443.0000
1127.0000,2854.5000,444.5000,0.0000,234.5000,2395.0000
1128.0000,2819.0000,425.0000,-1.0000,220.5000,2340.5000
1129.0000,2777.0000,435.0000,-2.0000,204.5000,2288.0000
1130.0000,2740.5000,423.5000,-3.0000,192.5000,2242.0000
1131.0000,2701.0000,365.5000,-3.5000,193.5000,2206.0000
1132.0000,2668.0000,308.0000,-4.0000,195.5000,2178.0000
1133.0000,2629.5000,246.0000,-4.5000,183.0000,2152.5000
1134.0000,2593.5000,203.0000,-4.5000,169.0000,2129.0000
1135.0000,2555.0000,170.5000,-4.5000,157.0000,2098.0000
1136.0000,2513.0000,139.0000,-4.0000,146.0000,2067.5000
1137.0000,2451.0000,92.0000,-3.5000,123.5000,2022.0000
1138.0000,2399.5000,52.5000,-3.0000,103.0000,1983.5000
1139.0000,2355.0000,13.5000,-2.5000,96.0000,1956.0000
1140.0000,2319.5000,-7.5000,-1.5000,95.0000,1931.0000
1141.0000,2285.0000,-20.0000,-0.5000,95.5000,1900.0000
1142.0000,2242.0000,-42.5000,0.0000,94.0000,1862.0000
1143.0000,2185.5000,-84.5000,1.0000,82.0000,1804.0000
1144.0000,2123.0000,-117.0000,2.0000,65.0000,1743.5000
1145.0000,2046.0000,-144.5000,2.5000,36.0000,1671.0000
1146.0000,1983.5000,-179.0000,3.5000,11.5000,1616.5000
1147.0000,1920.5000,-225.5000,4.0000,-2.0000,1581.0000
1148.0000,1877.0000,-266.5000,5.0000,-9.0000,1547.0000
1149.0000,1841.5000,-302.0000,5.5000,-0.5000,1507.5000
1150.0000,1802.0000,-340.5000,6.0000,-0.5000,1469.0000
1151.0000,1749.0000,-384.0000,6.5000,-17.5000,1419.5000
1152.0000,1703.0000,-420.0000,6.5000,-29.0000,1375.0000
1153.0000,1655.0000,-452.0000,6.5000,-35.5000,1324.0000
1154.0000,1606.5000,-475.5000,7.0000,-45.0000,1269.0000
1155.0000,1551.0000,-500.5000,7.0000,-59.0000,1201.5000
1156.0000,1504.0000,-520.0000,7.0000,-66.5000,1153.5000
1157.0000,1453.0000,-536.0000,7.5000,-63.0000,1119.0000
1158.0000,1412.0000,-527.0000,7.5000,-64.5000,1088.0000
1159.0000,1375.0000,-508.5000,7.0000,-72.0000,1047.5000
1160.0000,1335.0000,-500.5000,7.0000,-74.5000,1015.0000
1161.0000,1291.5000,-504.5000,7.0000,-73.0000,977.0000
1162.0000,1248.5000,-532.5000,7.0000,-81.5000,933.0000
1163.0000,1204.5000,-569.0000,7.5000,-100.0000,874.5000
1164.0000,1160.5000,-581.5000,8.0000,-106.0000,828.5000
1165.0000,1118.5000,-585.5000,8.5000,-99.5000,789.0000
1166.0000,1077.5000,-602.5000,8.5000,-104.5000,748.0000
1167.0000,1035.0000,-627.0000,9.0000,-125.0000,700.5000
1168.0000,997.0000,-657.0000,9.0000,-133.5000,667.0000
1169.0000,961.5000,-683.0000,9.0000,-137.5000,632.5000
1170.0000,926.0000,-697.0000,9.0000,-141.5000,599.5000
1171.0000,890.0000,-708.0000,9.5000,-146.5000,561.5000
1172.0000,848.5000,-728.5000,10.0000,-151.0000,521.5000
1173.0000,805.0000,-748.5000,10.5000,-154.5000,479.0000
1174.0000,765.5000,-758.0000,10.5000,-149.5000,453.0000
1175.0000,722.5000,-771.5000,11.0000,-143.0000,433.0000
1176.0000,662.5000,-801.0000,11.0000,-158.0000,402.5000
1177.0000,606.0000,-826.0000,11.5000,-182.5000,367.5000
1178.0000,569.0000,-822.0000,12.0000,-180.0000,359.0000
1179.0000,532.0000,-822.5000,12.0000,-164.5000,361.0000
1180.0000,465.0000,-849.0000,12.5000,-168.5000,341.5000
1181.0000,403.0000,-873.0000,12.5000,-183.0000,308.0000
1182.0000,345.0000,-881.0000,13.0000,-184.0000,278.5000
1183.0000,295.5000,-880.0000,13.0000,-178.0000,251.5000
1184.0000,245.5000,-873.0000,12.5000,-181.0000,231.0000
1185.0000,196.0000,-872.5000,12.0000,-187.0000,209.0000
1186.0000,130.0000,-883.5000,12.0000,-190.0000,184.5000
1187.0000,66.5000,-898.0000,11.5000,-195.0000,154.5000
1188.0000,-7.5000,-919.0000,10.5000,-209.5000,103.0000
1189.0000,-72.0000,-932.0000,9.5000,-220.5000,49.5000
1190.0000,-133.5000,-927.0000,8.5000,-218.5000,9.5000
1191.0000,-184.5000,-918.0000,7.5000,-214.0000,-14.5000
1192.0000,-235.0000,-908.5000,6.5000,-215.5000,-16.0000
1193.0000,-286.0000,-911.5000,6.5000,-220.0000,-16.5000
1194.0000,-353.5000,-928.0000,6.5000,-230.5000,-40.0000
1195.0000,-412.0000,-935.0000,7.0000,-241.0000,-75.5000
1196.0000,-467.0000,-929.0000,7.0000,-245.0000,-142.0000
1197.0000,-523.0000,-932.0000,7.0000,-245.5000,-200.0000
1198.0000,-593.0000,-950.0000,7.5000,-258.5000,-246.5000
1199.0000,-652.0000,-961.0000,7.5000,-273.5000,-282.0000
1200.0000,-712.5000,-959.0000,7.0000,-286.5000,-307.5000
1201.0000,-770.5000,-951.5000,6.5000,-292.5000,-331.5000
1202.0000,-838.0000,-941.0000,5.5000,-287.0000,-362.5000
1203.0000,-879.0000,-919.5000,4.5000,-281.0000,-388.5000
1204.0000,-904.0000,-883.5000,3.5000,-265.0000,-395.0000
1205.0000,-944.0000,-880.0000,2.0000,-265.5000,-410.5000
1206.0000,-1000.0000,-910.0000,1.0000,-292.0000,-446.5000
1207.0000,-1029.0000,-906.5000,0.0000,-304.0000,-473.0000
1208.0000,-1040.0000,-871.0000,-1.0000,-287.0000,-479.5000
1209.0000,-1064.0000,-841.5000,-2.0000,-274.0000,-499.0000
1210.0000,-1102.5000,-814.5000,-2.5000,-285.0000,-547.0000
1211.0000,-1120.0000,-772.5000,-3.0000,-279.0000,-577.5000
1212.0000,-1127.5000,-718.5000,-3.5000,-241.5000,-583.5000
1213.0000,-1146.5000,-676.5000,-3.5000,-219.0000,-589.5000
1214.0000,-1173.0000,-635.5000,-2.5000,-218.5000,-602.0000
1215.0000,-1202.5000,-611.5000,-1.5000,-222.5000,-605.5000
1216.0000,-1230.5000,-589.5000,-0.5000,-222.5000,-597.0000
1217.0000,-1230.5000,-546.0000,0.0000,-211.5000,-570.5000
1218.0000,-1219.0000,-491.5000,1.5000,-191.0000,-522.5000
1219.0000,-1224.0000,-460.0000,2.5000,-182.0000,-493.5000
1220.0000,-1238.0000,-435.0000,3.5000,-187.0000,-479.5000
1221.0000,-1254.0000,-391.0000,4.5000,-200.0000,-492.5000
1222.0000,-1266.0000,-331.5000,4.5000,-221.5000,-534.5000
1223.0000,-1265.5000,-268.0000,4.5000,-208.0000,-560.5000
1224.0000,-1261.0000,-205.5000,3.5000,-164.0000,-575.5000
1225.0000,-1247.0000,-153.5000,3.0000,-138.5000,-589.5000
1226.0000,-1235.5000,-110.0000,2.5000,-130.0000,-610.5000
1227.0000,-1242.0000,-85.0000,2.5000,-128.5000,-620.5000
1228.0000,-1250.0000,-65.5000,2.5000,-132.5000,-630.0000
1229.0000,-1255.0000,-44.5000,3.0000,-132.0000,-637.5000
1230.0000,-1258.5000,-20.5000,3.0000,-131.0000,-647.0000
1231.0000,-1266.5000,10.0000,3.5000,-130.5000,-666.0000
1232.0000,-1272.5000,38.0000,3.5000,-130.0000,-694.0000
1233.0000,-1264.5000,46.5000,3.5000,-119.0000,-715.0000
1234.0000,-1248.5000,53.0000,3.5000,-103.5000,-734.0000
1235.0000,-1230.5000,65.5000,3.0000,-91.5000,-741.5000
1236.0000,-1213.0000,82.5000,3.0000,-79.5000,-738.5000
1237.0000,-1199.5000,99.5000,2.5000,-76.0000,-724.0000
1238.0000,-1186.5000,114.0000,2.5000,-73.0000,-701.0000
1239.0000,-1175.5000,127.0000,2.5000,-66.0000,-684.5000
1240.0000,-1160.0000,140.0000,3.0000,-55.0000,-674.5000
1241.0000,-1136.0000,153.5000,3.5000,-39.5000,-697.0000
1242.0000,-1111.5000,163.5000,4.0000,-24.5000,-722.5000
1243.0000,-1086.0000,166.5000,5.0000,-16.5000,-688.5000
1244.0000,-1067.0000,162.5000,6.5000,-12.0000,-629.0000
1245.0000,-1049.5000,154.0000,7.5000,-10.0000,-565.0000
1246.0000,-1036.0000,146.0000,9.0000,-8.5000,-507.5000
1247.0000,-1028.5000,137.5000,10.5000,-7.5000,-493.0000
1248.0000,-1020.5000,143.0000,12.0000,-5.0000,-491.0000
1249.0000,-1010.0000,171.5000,13.0000,-2.0000,-497.5000
1250.0000,-993.5000,196.5000,13.5000,3.0000,-501.5000
1251.0000,-967.5000,212.0000,14.0000,14.0000,-487.0000
1252.0000,-945.5000,217.5000,14.0000,22.0000,-474.0000
1253.0000,-929.5000,213.0000,14.5000,28.0000,-481.0000
1254.0000,-913.0000,201.5000,15.0000,31.0000,-495.5000
1255.0000,-889.0000,174.5000,15.0000,28.0000,-512.0000
1256.0000,-868.0000,174.0000,15.0000,28.0000,-521.5000
1257.0000,-849.5000,210.0000,15.0000,32.5000,-511.5000
1258.0000,-827.5000,226.5000,14.5000,37.0000,-502.0000
1259.0000,-791.5000,219.5000,14.0000,42.5000,-499.5000
1260.0000,-762.0000,205.5000,13.0000,44.0000,-501.0000
1261.0000,-736.0000,181.0000,12.5000,30.0000,-508.5000
1262.0000,-720.0000,153.5000,12.0000,19.0000,-520.0000
1263.0000,-710.0000,117.5000,11.0000,26.5000,-531.0000
1264.0000,-696.5000,91.0000,10.5000,37.5000,-532.0000
1265.0000,-676.0000,68.5000,9.5000,50.5000,-516.0000
1266.0000,-651.5000,66.0000,9.0000,64.0000,-489.0000
1267.0000,-621.5000,72.5000,8.5000,79.0000,-446.0000
1268.0000,-598.5000,63.0000,8.5000,85.0000,-422.5000
1269.0000,-577.0000,36.0000,9.0000,72.5000,-431.0000
1270.0000,-549.0000,18.0000,9.5000,70.0000,-429.0000
1271.0000,-517.0000,7.0000,10.0000,84.5000,-395.0000
1272.0000,-508.5000,6.0000,10.0000,86.0000,-374.5000
1273.0000,-513.5000,12.5000,10.0000,62.0000,-373.0000
1274.0000,-511.0000,31.5000,10.0000,50.5000,-369.5000
1275.0000,-501.5000,56.0000,10.0000,59.0000,-357.0000
1276.0000,-498.0000,73.5000,9.5000,67.0000,-345.0000
1277.0000,-496.5000,87.5000,8.5000,71.0000,-331.5000
1278.0000,-489.5000,96.0000,8.0000,75.5000,-315.0000
1279.0000,-482.0000,102.0000,8.0000,79.0000,-290.5000
1280.0000,-473.5000,114.5000,8.0000,81.0000,-271.5000
1281.0000,-465.0000,131.5000,8.0000,80.0000,-255.0000
1282.0000,-462.0000,151.5000,8.0000,80.0000,-240.0000
1283.0000,-460.5000,173.5000,8.0000,81.5000,-222.0000
1284.0000,-454.5000,192.5000,8.5000,79.0000,-203.5000
1285.0000,-451.0000,204.5000,8.5000,73.0000,-179.0000
1286.0000,-460.5000,208.5000,8.5000,63.5000,-168.0000
1287.0000,-469.0000,212.0000,8.0000,54.5000,-159.5000
1288.0000,-454.5000,223.0000,7.5000,57.5000,-131.0000
1289.0000,-437.5000,232.5000,7.0000,69.0000,-86.5000
1290.0000,-432.0000,236.0000,6.5000,70.5000,-68.5000
1291.0000,-434.5000,235.5000,6.0000,66.5000,-68.0000
1292.0000,-446.5000,231.0000,5.0000,62.5000,-31.5000
1293.0000,-456.5000,223.5000,4.5000,60.5000,32.0000
1294.0000,-457.5000,219.5000,3.5000,51.5000,66.5000
1295.0000,-454.5000,216.0000,2.5000,40.0000,87.5000
1296.0000,-444.5000,216.5000,1.5000,43.5000,114.5000
1297.0000,-435.5000,221.0000,0.5000,57.0000,147.0000
1298.0000,-444.0000,221.0000,0.0000,58.0000,162.5000
1299.0000,-448.5000,224.5000,-0.5000,54.0000,168.5000
1300.0000,-441.0000,232.5000,-1.0000,51.5000,166.0000
1301.0000,-436.0000,238.5000,-1.5000,50.0000,162.0000
1302.0000,-440.5000,232.5000,-2.0000,46.5000,162.0000
1303.0000,-444.0000,234.5000,-2.0000,43.0000,170.0000
1304.0000,-438.5000,260.5000,-2.0000,44.5000,197.0000
1305.0000,-445.0000,270.5000,-2.0000,49.0000,225.0000
1306.0000,-483.5000,231.0000,-1.5000,48.0000,231.5000
1307.0000,-505.5000,208.0000,-1.5000,42.0000,230.5000
1308.0000,-500.0000,216.5000,-1.0000,19.0000,241.5000
1309.0000,-490.5000,229.0000,-1.0000,-1.5000,257.0000
1310.0000,-481.0000,243.0000,-0.5000,-0.5000,273.0000
1311.0000,-478.5000,245.5000,-0.5000,6.5000,286.5000
1312.0000,-477.0000,241.0000,-1.0000,10.0000,297.0000
1313.0000,-469.0000,251.0000,-1.5000,12.5000,304.0000
1314.0000,-447.0000,296.5000,-2.0000,13.5000,290.5000
1315.0000,-430.0000,334.5000,-2.5000,14.5000,271.5000
1316.0000,-419.0000,373.0000,-3.0000,15.0000,247.0000
1317.0000,-418.0000,386.5000,-3.0000,12.5000,232.5000
1318.0000,-421.0000,381.5000,-3.0000,8.5000,239.0000
1319.0000,-423.5000,389.5000,-3.0000,4.0000,250.5000
1320.0000,-427.0000,418.5000,-3.0000,-0.5000,259.0000
1321.0000,-426.0000,448.0000,-2.5000,-3.0000,263.0000
1322.0000,-421.5000,477.0000,-2.0000,1.0000,258.5000
1323.0000,-425.5000,491.5000,-1.5000,5.5000,247.0000
1324.0000,-436.0000,502.0000,-0.5000,4.0000,220.0000
1325.0000,-435.5000,521.5000,0.0000,3.0000,198.5000
1326.0000,-429.5000,545.5000,0.0000,10.0000,184.5000
1327.0000,-431.5000,562.5000,1.0000,16.0000,170.0000
1328.0000,-441.5000,570.5000,2.0000,14.0000,145.5000
1329.0000,-452.0000,581.0000,2.5000,13.0000,126.5000
1330.0000,-463.0000,595.0000,3.0000,3.5000,109.0000
1331.0000,-468.0000,609.0000,3.5000,-2.0000,93.5000
1332.0000,-470.0000,622.5000,4.0000,-5.0000,81.5000
1333.0000,-487.5000,611.0000,4.0000,-15.5000,65.0000
1334.0000,-510.5000,587.0000,4.0000,-34.0000,41.0000
1335.0000,-503.0000,585.5000,3.5000,-33.5000,31.5000
1336.0000,-484.0000,597.5000,2.5000,-11.5000,40.5000
1337.0000,-482.5000,598.5000,2.0000,2.5000,38.5000
1338.0000,-489.5000,597.0000,1.5000,7.0000,17.5000
1339.0000,-513.5000,583.0000,1.5000,-5.5000,-14.5000
1340.0000,-539.5000,570.0000,2.0000,-28.0000,-56.0000
1341.0000,-541.5000,585.5000,2.0000,-37.0000,-77.5000
1342.0000,-532.0000,613.0000,3.0000,-32.5000,-86.0000
1343.0000,-526.5000,631.0000,4.0000,-35.5000,-105.0000
1344.0000,-521.5000,643.5000,5.0000,-47.5000,-141.0000
1345.0000,-511.5000,646.5000,6.5000,-51.0000,-171.0000
1346.0000,-499.5000,644.0000,7.5000,-49.5000,-201.5000
1347.0000,-490.0000,629.5000,8.5000,-47.5000,-233.5000
1348.0000,-486.5000,608.0000,10.0000,-48.5000,-274.0000
1349.0000,-499.0000,580.0000,11.5000,-50.0000,-301.0000
1350.0000,-519.0000,545.5000,12.5000,-56.5000,-325.0000
1351.0000,-543.5000,514.5000,14.0000,-63.0000,-345.5000
1352.0000,-563.5000,487.5000,15.5000,-68.0000,-367.0000
1353.0000,-573.5000,467.5000,17.0000,-62.5000,-375.5000
1354.0000,-582.5000,446.0000,18.5000,-52.0000,-376.0000
1355.0000,-597.5000,406.5000,19.5000,-53.5000,-384.0000
1356.0000,-612.0000,359.0000,20.0000,-64.5000,-394.5000
1357.0000,-629.0000,306.0000,20.0000,-68.5000,-395.5000
1358.0000,-642.0000,251.5000,20.0000,-72.5000,-391.5000
1359.0000,-644.5000,185.5000,19.5000,-79.0000,-397.0000
1360.0000,-645.0000,129.0000,19.0000,-82.0000,-401.5000
1361.0000,-638.5000,90.5000,17.5000,-78.5000,-395.0000
1362.0000,-631.5000,60.5000,16.0000,-74.0000,-381.5000
1363.0000,-630.5000,26.5000,14.5000,-77.0000,-374.0000
1364.0000,-637.5000,-4.5000,12.5000,-81.0000,-366.0000
1365.0000,-656.5000,-40.5000,11.0000,-86.5000,-361.0000
1366.0000,-671.5000,-68.5000,9.5000,-88.0000,-354.5000
1367.0000,-680.0000,-92.0000,8.0000,-81.5000,-344.5000
1368.0000,-684.0000,-119.0000,7.0000,-75.5000,-333.0000
1369.0000,-687.5000,-159.5000,6.5000,-69.5000,-317.0000
1370.0000,-700.5000,-203.5000,6.0000,-68.5000,-306.0000
1371.0000,-731.5000,-256.5000,6.0000,-70.0000,-308.0000
1372.0000,-759.0000,-296.0000,6.0000,-72.0000,-307.0000
1373.0000,-785.5000,-332.0000,7.0000,-79.0000,-295.0000
1374.0000,-811.5000,-363.0000,7.5000,-89.0000,-287.0000
1375.0000,-852.0000,-394.0000,8.0000,-115.5000,-300.0000
1376.0000,-873.5000,-425.0000,8.5000,-133.5000,-307.5000
1377.0000,-878.0000,-461.5000,8.5000,-115.5000,-285.5000
1378.0000,-885.0000,-490.5000,9.0000,-96.0000,-258.5000
1379.0000,-899.5000,-519.0000,9.0000,-84.5000,-229.5000
1380.0000,-909.5000,-539.5000,9.0000,-80.0000,-208.0000
1381.0000,-914.5000,-557.0000,9.0000,-85.5000,-196.0000
1382.0000,-933.5000,-604.0000,9.0000,-90.5000,-185.0000
1383.0000,-968.5000,-687.0000,9.0000,-95.0000,-175.0000
1384.0000,-967.0000,-726.5000,8.5000,-90.0000,-144.0000
1385.0000,-935.0000,-735.0000,7.5000,-67.5000,-60.0000
1386.0000,-933.0000,-765.5000,7.0000,-56.0000,7.0000
1387.0000,-953.5000,-824.0000,6.5000,-69.0000,51.0000
1388.0000,-975.0000,-871.5000,6.0000,-83.0000,81.5000
1389.0000,-997.5000,-916.0000,6.0000,-93.0000,111.0000
1390.0000,-999.5000,-940.5000,6.0000,-87.5000,136.0000
1391.0000,-989.5000,-956.0000,5.5000,-59.0000,161.5000
1392.0000,-985.0000,-968.0000,6.0000,-42.5000,187.0000
1393.0000,-985.5000,-982.5000,6.0000,-42.0000,223.5000
1394.0000,-978.5000,-1002.5000,6.5000,-41.5000,271.0000
1395.0000,-966.0000,-1025.5000,7.0000,-36.5000,343.5000
1396.0000,-952.0000,-1054.0000,7.0000,-28.0000,403.5000
1397.0000,-938.0000,-1082.0000,7.0000,-15.0000,458.0000
1398.0000,-919.5000,-1083.5000,7.0000,7.5000,513.5000
1399.0000,-898.5000,-1075.0000,7.0000,41.0000,581.5000
1400.0000,-896.5000,-1083.5000,7.5000,60.5000,626.5000
1401.0000,-901.5000,-1098.0000,8.5000,69.5000,652.0000
1402.0000,-904.5000,-1075.0000,9.0000,78.5000,659.0000
1403.0000,-904.0000,-1031.0000,10.0000,92.0000,651.0000
1404.0000,-894.0000,-976.5000,10.5000,107.0000,651.0000
1405.0000,-878.0000,-921.0000,11.0000,128.5000,664.5000
1406.0000,-859.5000,-893.5000,11.5000,150.0000,691.5000
1407.0000,-838.5000,-874.5000,12.0000,181.0000,737.0000
1408.0000,-816.0000,-857.5000,12.0000,209.0000,769.0000
1409.0000,-787.0000,-836.0000,11.5000,242.5000,794.5000
1410.0000,-756.5000,-802.0000,11.0000,284.5000,816.0000
1411.0000,-727.0000,-768.5000,10.0000,341.0000,835.0000
1412.0000,-704.5000,-751.0000,9.5000,406.0000,849.0000
1413.0000,-686.5000,-737.5000,9.0000,482.0000,859.0000
1414.0000,-668.0000,-719.5000,8.5000,549.0000,866.5000
1415.0000,-668.0000,-713.5000,8.5000,610.5000,865.0000
1416.0000,-725.0000,-754.5000,8.0000,635.5000,804.5000
1417.0000,-810.0000,-820.0000,8.0000,642.5000,707.5000
1418.0000,-959.5000,-945.5000,8.0000,627.5000,564.0000
1419.0000,-1086.0000,-1057.5000,8.0000,599.5000,403.0000
1420.0000,-1160.5000,-1136.5000,8.0000,540.0000,310.5000
1421.0000,-1207.5000,-1192.5000,8.5000,461.0000,242.0000
1422.0000,-1241.5000,-1238.5000,9.0000,357.0000,192.0000
1423.0000,-1288.0000,-1284.5000,9.5000,247.5000,141.0000
1424.0000,-1367.0000,-1344.5000,9.5000,151.0000,83.0000
1425.0000,-1443.5000,-1398.5000,9.0000,62.0000,16.5000
1426.0000,-1525.5000,-1445.5000,8.5000,-10.5000,-66.5000
1427.0000,-1606.5000,-1498.0000,7.5000,-85.0000,-161.5000
1428.0000,-1701.5000,-1572.5000,6.0000,-171.0000,-267.0000
1429.0000,-1771.5000,-1626.5000,5.0000,-272.0000,-364.5000
1430.0000,-1810.0000,-1650.5000,4.0000,-400.0000,-413.0000
1431.0000,-1833.5000,-1667.0000,3.0000,-529.0000,-448.5000
1432.0000,-1847.0000,-1672.5000,2.0000,-629.5000,-483.5000
1433.0000,-1842.0000,-1660.0000,1.5000,-712.0000,-512.5000
1434.0000,-1809.0000,-1615.5000,1.5000,-774.5000,-519.5000
1435.0000,-1790.0000,-1583.5000,2.0000,-831.5000,-527.5000
1436.0000,-1791.5000,-1570.5000,2.5000,-899.5000,-572.0000
1437.0000,-1806.0000,-1569.0000,3.5000,-953.5000,-621.0000
1438.0000,-1837.5000,-1576.5000,4.5000,-972.0000,-675.5000
1439.0000,-1858.5000,-1580.5000,6.0000,-983.5000,-720.0000
1440.0000,-1873.0000,-1583.0000,7.0000,-1011.5000,-761.0000
1441.0000,-1872.0000,-1559.5000,8.5000,-1029.0000,-782.5000
1442.0000,-1858.0000,-1512.5000,10.0000,-1026.5000,-777.5000
1443.0000,-1823.5000,-1452.5000,11.5000,-1002.0000,-752.0000
1444.0000,-1769.5000,-1375.5000,13.0000,-936.5000,-689.5000
1445.0000,-1705.0000,-1307.0000,14.0000,-863.0000,-628.5000
1446.0000,-1629.5000,-1234.5000,14.5000,-767.0000,-564.5000
1447.0000,-1592.0000,-1181.5000,15.5000,-684.5000,-523.5000
1448.0000,-1575.0000,-1132.0000,16.0000,-603.0000,-510.0000
1449.0000,-1559.5000,-1086.5000,16.0000,-538.0000,-496.0000
1450.0000,-1539.5000,-1037.0000,16.5000,-473.5000,-458.5000
1451.0000,-1530.0000,-1003.0000,16.5000,-439.0000,-438.0000
1452.0000,-1520.0000,-969.0000,17.0000,-425.0000,-428.5000
1453.0000,-1485.0000,-921.5000,16.5000,-406.0000,-417.0000
1454.0000,-1434.5000,-859.5000,16.0000,-365.0000,-386.0000
1455.0000,-1398.0000,-807.5000,15.5000,-330.5000,-363.5000
1456.0000,-1363.5000,-751.5000,14.5000,-298.5000,-346.0000
1457.0000,-1332.0000,-693.5000,13.5000,-266.0000,-321.0000
1458.0000,-1299.0000,-632.0000,12.5000,-227.5000,-284.5000
1459.0000,-1269.0000,-577.0000,12.0000,-200.5000,-257.0000
1460.0000,-1240.0000,-522.5000,11.0000,-180.0000,-238.5000
1461.0000,-1206.5000,-456.5000,10.5000,-150.0000,-213.5000
1462.0000,-1174.0000,-389.5000,10.0000,-110.5000,-189.0000
1463.0000,-1150.0000,-342.0000,10.0000,-79.0000,-168.5000
1464.0000,-1136.0000,-308.5000,9.5000,-58.0000,-156.5000
1465.0000,-1138.5000,-315.0000,9.5000,-52.0000,-167.5000
1466.0000,-1146.0000,-333.5000,9.5000,-53.0000,-196.0000
1467.0000,-1148.0000,-333.5000,10.0000,-51.0000,-217.5000
1468.0000,-1154.0000,-324.5000,10.0000,-53.0000,-243.5000
1469.0000,-1173.0000,-305.0000,10.0000,-57.5000,-274.5000
1470.0000,-1196.0000,-282.5000,10.5000,-61.0000,-311.5000
1471.0000,-1213.0000,-260.5000,10.5000,-62.0000,-346.5000
1472.0000,-1228.0000,-243.0000,10.5000,-62.0000,-384.0000
1473.0000,-1254.0000,-245.5000,10.5000,-72.5000,-426.5000
1474.0000,-1274.5000,-244.5000,10.5000,-87.0000,-470.0000
1475.0000,-1287.5000,-226.5000,10.5000,-97.0000,-491.0000
1476.0000,-1292.0000,-203.0000,10.5000,-102.5000,-501.0000
1477.0000,-1280.0000,-175.0000,11.0000,-110.0000,-501.0000
1478.0000,-1266.5000,-144.5000,11.0000,-117.0000,-497.0000
1479.0000,-1264.0000,-113.0000,11.0000,-112.5000,-489.5000
1480.0000,-1260.5000,-87.5000,11.0000,-98.5000,-481.5000
1481.0000,-1249.5000,-76.5000,11.0000,-63.0000,-473.0000
1482.0000,-1239.0000,-71.5000,11.0000,-24.5000,-472.5000
1483.0000,-1232.0000,-67.0000,10.5000,-10.0000,-502.5000
1484.0000,-1216.0000,-49.0000,10.0000,-5.5000,-542.0000
1485.0000,-1180.0000,0.5000,9.5000,2.5000,-556.5000
1486.0000,-1161.0000,33.5000,8.5000,6.5000,-566.0000
1487.0000,-1179.5000,28.0000,8.5000,-4.5000,-570.0000
1488.0000,-1200.5000,23.5000,8.0000,-18.5000,-577.0000
1489.0000,-1216.0000,33.5000,7.5000,-17.0000,-583.0000
1490.0000,-1223.5000,43.0000,7.5000,-12.5000,-592.0000
1491.0000,-1223.5000,52.5000,7.0000,-11.5000,-614.0000
1492.0000,-1229.0000,64.0000,7.0000,-17.5000,-641.5000
1493.0000,-1242.0000,91.0000,7.5000,-34.0000,-681.0000
1494.0000,-1242.5000,109.0000,8.0000,-47.5000,-717.0000
1495.0000,-1225.0000,118.5000,9.0000,-56.0000,-741.5000
1496.0000,-1212.5000,125.0000,9.5000,-60.5000,-759.0000
1497.0000,-1208.5000,130.0000,10.5000,-64.0000,-771.5000
1498.0000,-1206.0000,142.5000,11.0000,-67.0000,-779.0000
1499.0000,-1212.0000,163.5000,11.5000,-63.0000,-782.0000
1500.0000,-1202.5000,188.5000,11.5000,-55.5000,-780.0000
1501.0000,-1174.0000,218.5000,12.0000,-34.5000,-774.5000
1502.0000,-1174.5000,231.0000,12.5000,-24.5000,-775.5000
1503.0000,-1203.0000,226.5000,13.5000,-41.0000,-789.5000
1504.0000,-1213.0000,227.0000,14.0000,-48.5000,-802.0000
1505.0000,-1204.5000,230.5000,14.5000,-39.0000,-817.0000
1506.0000,-1177.5000,232.0000,15.0000,-33.0000,-837.5000
1507.0000,-1140.0000,229.0000,15.5000,-41.0000,-874.0000
1508.0000,-1123.5000,210.5000,15.5000,-51.5000,-911.5000
1509.0000,-1120.5000,183.0000,15.5000,-61.5000,-953.0000
1510.0000,-1132.5000,168.5000,15.5000,-64.0000,-987.5000
1511.0000,-1152.0000,162.0000,16.0000,-63.0000,-1018.5000
1512.0000,-1170.0000,151.5000,16.0000,-67.0000,-1044.0000
1513.0000,-1186.5000,137.0000,16.5000,-74.0000,-1068.5000
1514.0000,-1189.5000,119.0000,16.5000,-79.5000,-1082.0000
1515.0000,-1183.5000,99.5000,16.0000,-79.5000,-1085.5000
1516.0000,-1178.5000,85.0000,15.5000,-83.0000,-1096.0000
1517.0000,-1171.5000,75.5000,15.0000,-91.5000,-1122.0000
1518.0000,-1150.5000,77.0000,14.5000,-110.0000,-1151.0000
1519.0000,-1116.5000,84.0000,13.5000,-140.5000,-1185.5000
1520.0000,-1064.5000,96.0000,13.0000,-160.0000,-1212.5000
1521.0000,-1007.0000,103.5000,12.5000,-171.0000,-1238.5000
1522.0000,-966.0000,89.0000,12.0000,-161.5000,-1252.0000
1523.0000,-936.5000,65.0000,12.0000,-133.5000,-1256.5000
1524.0000,-921.0000,46.0000,12.0000,-125.5000,-1261.0000
1525.0000,-911.5000,29.5000,11.5000,-139.0000,-1267.5000
1526.0000,-902.5000,12.0000,11.5000,-158.5000,-1284.5000
1527.0000,-891.0000,-6.0000,11.5000,-179.0000,-1307.5000
1528.0000,-862.0000,-16.5000,12.0000,-189.5000,-1330.0000
1529.0000,-833.0000,-22.5000,12.0000,-193.5000,-1357.5000
1530.0000,-822.5000,-23.5000,12.0000,-188.0000,-1390.0000
1531.0000,-813.5000,-25.5000,12.0000,-179.5000,-1433.5000
1532.0000,-801.0000,-34.0000,12.5000,-174.5000,-1470.5000
1533.0000,-777.0000,-44.5000,12.5000,-172.5000,-1504.5000
1534.0000,-722.5000,-57.5000,12.5000,-176.0000,-1500.0000
1535.0000,-682.0000,-73.0000,13.0000,-185.0000,-1478.0000
1536.0000,-697.0000,-100.0000,13.5000,-218.5000,-1467.0000
1537.0000,-718.5000,-119.0000,13.5000,-265.0000,-1466.0000
1538.0000,-727.0000,-105.5000,14.0000,-303.0000,-1462.0000
1539.0000,-726.0000,-81.0000,14.5000,-334.0000,-1453.5000
1540.0000,-713.0000,-49.0000,14.5000,-343.5000,-1434.5000
1541.0000,-712.0000,-32.5000,14.5000,-345.5000,-1418.5000
1542.0000,-737.5000,-49.0000,14.0000,-347.5000,-1442.5000
1543.0000,-765.0000,-75.5000,13.5000,-349.5000,-1478.0000
1544.0000,-784.5000,-104.5000,12.5000,-341.0000,-1495.0000
1545.0000,-801.5000,-128.5000,12.0000,-336.0000,-1505.5000
1546.0000,-814.5000,-151.0000,11.5000,-341.0000,-1509.0000
1547.0000,-828.5000,-176.5000,11.0000,-349.0000,-1513.5000
1548.0000,-842.5000,-214.5000,10.5000,-365.0000,-1521.5000
1549.0000,-859.5000,-241.0000,10.5000,-387.0000,-1525.0000
1550.0000,-882.5000,-258.0000,10.0000,-418.0000,-1510.5000
1551.0000,-895.5000,-268.0000,10.0000,-448.5000,-1486.5000
1552.0000,-897.0000,-273.0000,10.0000,-466.5000,-1441.5000
1553.0000,-898.5000,-278.0000,9.5000,-481.5000,-1405.5000
1554.0000,-901.0000,-281.5000,9.0000,-499.5000,-1392.0000
1555.0000,-900.5000,-291.5000,8.5000,-508.5000,-1388.5000
1556.0000,-890.5000,-309.0000,8.0000,-502.5000,-1397.0000
1557.0000,-884.5000,-315.5000,7.5000,-490.5000,-1408.5000
1558.0000,-884.5000,-304.0000,7.0000,-479.5000,-1434.5000
1559.0000,-885.5000,-271.0000,6.5000,-470.0000,-1450.0000
1560.0000,-886.5000,-205.0000,6.5000,-454.5000,-1429.5000
1561.0000,-918.5000,-178.5000,6.0000,-452.5000,-1411.5000
1562.0000,-982.5000,-186.0000,6.0000,-480.5000,-1412.0000
1563.0000,-999.5000,-186.0000,6.0000,-501.5000,-1404.5000
1564.0000,-978.0000,-176.0000,5.5000,-508.5000,-1371.5000
1565.0000,-963.5000,-201.5000,5.5000,-524.0000,-1352.0000
1566.0000,-959.0000,-260.0000,5.5000,-559.5000,-1357.5000
1567.0000,-960.5000,-275.5000,6.0000,-595.0000,-1354.5000
1568.0000,-965.5000,-258.5000,6.5000,-636.5000,-1327.0000
1569.0000,-983.5000,-207.5000,7.5000,-703.0000,-1293.5000
1570.0000,-1010.0000,-140.5000,8.0000,-827.5000,-1247.5000
1571.0000,-1044.0000,-148.5000,9.0000,-883.5000,-1235.5000
1572.0000,-1084.5000,-208.5000,9.5000,-851.0000,-1272.5000
1573.0000,-1111.0000,-237.5000,10.0000,-806.5000,-1285.0000
1574.0000,-1133.0000,-247.5000,10.5000,-765.5000,-1266.5000
1575.0000,-1146.0000,-241.0000,10.5000,-753.0000,-1257.0000
1576.0000,-1162.5000,-227.0000,11.0000,-764.5000,-1253.0000
1577.0000,-1218.5000,-230.0000,12.0000,-783.0000,-1245.0000
1578.0000,-1294.5000,-240.0000,12.5000,-804.5000,-1225.0000
1579.0000,-1338.0000,-237.5000,13.5000,-836.0000,-1184.0000
1580.0000,-1370.5000,-228.5000,14.0000,-885.0000,-1117.0000
1581.0000,-1400.0000,-221.5000,14.0000,-937.5000,-1058.5000
1582.0000,-1432.0000,-219.5000,14.0000,-999.5000,-999.5000
1583.0000,-1461.0000,-243.5000,14.0000,-1030.5000,-951.5000
1584.0000,-1487.0000,-277.5000,14.0000,-1044.5000,-901.0000
1585.0000,-1491.5000,-300.0000,13.5000,-1078.0000,-860.0000
1586.0000,-1488.5000,-300.0000,13.5000,-1137.0000,-818.5000
1587.0000,-1485.5000,-219.0000,13.0000,-1185.5000,-780.5000
1588.0000,-1494.5000,-127.5000,12.5000,-1231.5000,-737.0000
1589.0000,-1536.5000,-93.5000,12.0000,-1258.0000,-725.5000
1590.0000,-1578.0000,-81.5000,11.5000,-1271.0000,-727.0000
1591.0000,-1594.0000,-77.5000,11.0000,-1265.5000,-712.0000
1592.0000,-1595.5000,-79.0000,10.0000,-1251.5000,-681.0000
1593.0000,-1570.5000,-70.5000,9.5000,-1244.5000,-633.0000
1594.0000,-1541.0000,-64.0000,9.5000,-1244.0000,-581.5000
1595.0000,-1504.0000,-56.5000,9.0000,-1286.5000,-580.0000
1596.0000,-1476.5000,-41.5000,9.0000,-1344.0000,-601.0000
1597.0000,-1480.5000,10.5000,8.5000,-1364.5000,-601.0000
1598.0000,-1490.0000,58.0000,8.0000,-1363.5000,-589.0000
1599.0000,-1492.5000,87.5000,8.0000,-1374.5000,-583.5000
1600.0000,-1497.0000,99.5000,8.0000,-1393.5000,-586.0000
1601.0000,-1501.0000,99.0000,8.5000,-1421.5000,-624.0000
1602.0000,-1506.5000,107.5000,8.5000,-1444.5000,-674.0000
1603.0000,-1520.0000,139.0000,9.5000,-1421.5000,-710.0000
1604.0000,-1512.5000,168.0000,10.0000,-1374.5000,-745.0000
1605.0000,-1452.5000,183.5000,10.0000,-1294.5000,-786.0000
1606.0000,-1423.5000,190.5000,10.5000,-1215.0000,-827.5000
1607.0000,-1457.0000,177.0000,11.0000,-1193.0000,-882.0000
1608.0000,-1510.5000,158.5000,12.0000,-1189.5000,-932.0000
1609.0000,-1595.0000,123.5000,12.5000,-1178.5000,-945.5000
1610.0000,-1648.5000,138.5000,12.5000,-1170.5000,-945.5000
1611.0000,-1668.0000,236.5000,12.5000,-1192.0000,-928.5000
1612.0000,-1660.0000,323.5000,12.5000,-1222.0000,-907.5000
1613.0000,-1624.5000,394.0000,12.5000,-1254.0000,-882.0000
1614.0000,-1600.0000,436.5000,13.0000,-1281.0000,-864.0000
1615.0000,-1592.0000,462.5000,13.0000,-1306.0000,-863.5000
1616.0000,-1610.0000,460.0000,13.0000,-1322.5000,-870.5000
1617.0000,-1661.0000,431.5000,13.0000,-1327.0000,-875.5000
1618.0000,-1694.5000,425.0000,13.5000,-1328.0000,-881.5000
1619.0000,-1712.0000,444.0000,13.5000,-1326.5000,-883.0000
1620.0000,-1722.5000,455.5000,13.5000,-1329.5000,-883.5000
1621.0000,-1732.5000,457.5000,14.0000,-1337.5000,-886.5000
1622.0000,-1727.5000,473.0000,14.0000,-1342.5000,-888.5000
1623.0000,-1712.5000,508.0000,14.0000,-1336.0000,-888.5000
1624.0000,-1707.0000,542.5000,13.5000,-1336.5000,-895.0000
1625.0000,-1707.0000,579.5000,13.0000,-1355.0000,-921.0000
1626.0000,-1698.5000,617.0000,12.5000,-1377.0000,-940.0000
1627.0000,-1680.0000,658.5000,12.0000,-1402.5000,-950.5000
1628.0000,-1687.0000,687.0000,11.5000,-1417.5000,-968.0000
1629.0000,-1712.0000,708.0000,11.0000,-1417.0000,-1002.5000
1630.0000,-1748.5000,716.0000,11.0000,-1423.5000,-1039.5000
1631.0000,-1790.0000,717.0000,11.0000,-1448.5000,-1088.5000
1632.0000,-1796.0000,731.5000,11.5000,-1471.0000,-1130.5000
1633.0000,-1785.5000,755.0000,12.0000,-1494.5000,-1171.5000
1634.0000,-1764.5000,770.0000,12.5000,-1516.5000,-1195.0000
1635.0000,-1742.0000,780.0000,13.5000,-1541.0000,-1198.0000
1636.0000,-1736.0000,780.5000,14.0000,-1567.5000,-1200.0000
1637.0000,-1734.5000,780.5000,14.0000,-1599.5000,-1198.0000
1638.0000,-1703.5000,791.5000,14.0000,-1609.0000,-1193.5000
1639.0000,-1661.5000,807.5000,14.0000,-1598.0000,-1182.5000
1640.0000,-1634.5000,824.0000,14.5000,-1584.0000,-1183.0000
1641.0000,-1618.0000,839.5000,14.5000,-1565.5000,-1193.5000
1642.0000,-1616.0000,840.0000,14.5000,-1560.0000,-1220.0000
1643.0000,-1620.0000,838.5000,15.0000,-1559.5000,-1267.0000
1644.0000,-1623.0000,840.0000,15.0000,-1548.5000,-1319.5000
1645.0000,-1624.5000,847.5000,15.0000,-1523.0000,-1390.0000
1646.0000,-1626.0000,869.0000,15.5000,-1500.5000,-1474.0000
1647.0000,-1626.5000,913.5000,16.0000,-1474.5000,-1575.5000
1648.0000,-1636.0000,1037.5000,16.5000,-1472.5000,-1612.0000
1649.0000,-1640.5000,1181.5000,17.0000,-1484.0000,-1612.0000
1650.0000,-1627.0000,1301.0000,18.0000,-1487.0000,-1587.5000
1651.0000,-1602.0000,1387.0000,18.5000,-1483.0000,-1560.0000
1652.0000,-1548.0000,1409.0000,19.0000,-1466.5000,-1559.5000
1653.0000,-1510.5000,1417.0000,19.5000,-1446.0000,-1582.0000
1654.0000,-1538.0000,1440.0000,20.0000,-1439.5000,-1625.5000
1655.0000,-1593.0000,1465.5000,20.5000,-1443.0000,-1680.5000
1656.0000,-1693.0000,1472.0000,20.5000,-1466.0000,-1718.0000
1657.0000,-1779.5000,1469.5000,20.5000,-1497.5000,-1742.0000
1658.0000,-1820.5000,1468.0000,20.5000,-1508.0000,-1751.0000
1659.0000,-1854.0000,1467.5000,21.0000,-1509.5000,-1745.0000
1660.0000,-1906.5000,1460.0000,21.0000,-1518.5000,-1724.5000
1661.0000,-1936.5000,1456.5000,21.5000,-1535.0000,-1690.0000
1662.0000,-1912.0000,1457.5000,22.0000,-1556.0000,-1641.0000
1663.0000,-1869.5000,1463.5000,22.0000,-1577.0000,-1581.0000
1664.0000,-1799.0000,1480.0000,22.0000,-1589.0000,-1524.0000
1665.0000,-1779.0000,1498.5000,22.0000,-1601.0000,-1467.5000
1666.0000,-1845.5000,1523.5000,22.0000,-1639.0000,-1416.5000
1667.0000,-1927.0000,1520.0000,22.0000,-1680.0000,-1359.0000
1668.0000,-2032.0000,1477.0000,21.5000,-1715.5000,-1283.0000
1669.0000,-2104.5000,1464.5000,21.5000,-1744.5000,-1219.0000
1670.0000,-2159.0000,1516.0000,21.0000,-1771.5000,-1206.5000
1671.0000,-2188.5000,1553.5000,21.0000,-1792.0000,-1207.0000
1672.0000,-2202.0000,1564.0000,21.0000,-1796.5000,-1187.5000
1673.0000,-2168.5000,1570.0000,20.5000,-1786.5000,-1161.5000
1674.0000,-2081.0000,1589.0000,20.5000,-1755.0000,-1121.5000
1675.0000,-2036.5000,1607.5000,20.0000,-1724.0000,-1088.0000
1676.0000,-2047.5000,1627.5000,20.0000,-1705.5000,-1062.0000
1677.0000,-2103.5000,1655.5000,20.0000,-1699.0000,-1053.5000
1678.0000,-2205.5000,1700.0000,20.0000,-1707.5000,-1074.0000
1679.0000,-2281.0000,1756.5000,20.5000,-1720.5000,-1095.0000
1680.0000,-2341.5000,1834.0000,20.5000,-1729.0000,-1108.0000
1681.0000,-2381.0000,1901.0000,21.0000,-1733.5000,-1116.0000
1682.0000,-2409.0000,1962.5000,21.0000,-1727.5000,-1116.5000
1683.0000,-2422.0000,1976.0000,21.0000,-1723.5000,-1126.0000
1684.0000,-2429.0000,1949.0000,21.5000,-1723.5000,-1163.5000
1685.0000,-2440.5000,1942.0000,21.5000,-1719.0000,-1197.5000
1686.0000,-2457.0000,1953.0000,21.5000,-1705.0000,-1238.0000
1687.0000,-2449.0000,1987.0000,21.0000,-1700.5000,-1281.0000
1688.0000,-2427.0000,2034.0000,21.0000,-1701.5000,-1341.0000
1689.0000,-2418.0000,2068.5000,20.5000,-1698.0000,-1390.5000
1690.0000,-2415.0000,2094.5000,20.5000,-1683.5000,-1439.0000
1691.0000,-2418.5000,2081.5000,20.0000,-1658.0000,-1473.0000
1692.0000,-2424.5000,2048.5000,19.5000,-1619.0000,-1504.5000
1693.0000,-2441.0000,2034.5000,19.5000,-1588.0000,-1530.0000
1694.0000,-2465.5000,2033.0000,19.0000,-1568.0000,-1550.5000
1695.0000,-2494.5000,2023.0000,18.5000,-1562.0000,-1563.5000
1696.0000,-2526.5000,2008.0000,18.0000,-1576.5000,-1569.0000
1697.0000,-2523.5000,2007.0000,17.5000,-1587.5000,-1586.5000
1698.0000,-2513.0000,2014.5000,16.5000,-1600.0000,-1614.0000
1699.0000,-2546.0000,2025.5000,16.0000,-1609.5000,-1649.5000
1700.0000,-2591.5000,2033.0000,15.5000,-1618.0000,-1690.5000
1701.0000,-2578.5000,2020.0000,14.5000,-1601.0000,-1722.0000
1702.0000,-2553.5000,1999.0000,14.0000,-1561.0000,-1745.5000
1703.0000,-2582.0000,1992.5000,13.5000,-1559.5000,-1773.0000
1704.0000,-2616.5000,1993.5000,13.5000,-1589.5000,-1808.0000
1705.0000,-2577.5000,2011.0000,13.5000,-1602.0000,-1802.0000
1706.0000,-2489.5000,2035.5000,13.0000,-1600.0000,-1766.5000
1707.0000,-2305.5000,2070.5000,13.0000,-1607.5000,-1711.5000
1708.0000,-2100.0000,2096.5000,12.5000,-1625.5000,-1643.0000
1709.0000,-1898.0000,2087.0000,12.5000,-1655.0000,-1578.5000
1710.0000,-1741.0000,2067.0000,12.5000,-1688.5000,-1516.5000
1711.0000,-1723.0000,2051.0000,12.0000,-1687.5000,-1483.0000
1712.0000,-1756.5000,2040.5000,12.0000,-1669.0000,-1465.0000
1713.0000,-1857.5000,2031.0000,12.5000,-1656.5000,-1454.5000
1714.0000,-1939.5000,2021.5000,13.0000,-1653.0000,-1446.5000
1715.0000,-1966.0000,1996.5000,13.5000,-1670.5000,-1456.5000
1716.0000,-1943.5000,1975.5000,14.0000,-1688.0000,-1467.5000
1717.0000,-1847.0000,1949.5000,14.5000,-1659.5000,-1450.5000
1718.0000,-1755.5000,1926.5000,14.5000,-1614.5000,-1419.5000
1719.0000,-1707.0000,1899.5000,15.0000,-1569.0000,-1386.5000
1720.0000,-1703.5000,1876.0000,15.5000,-1528.5000,-1355.0000
1721.0000,-1767.0000,1850.0000,15.5000,-1503.0000,-1336.5000
1722.0000,-1845.0000,1833.0000,15.5000,-1487.0000,-1318.5000
1723.0000,-1939.0000,1828.5000,16.0000,-1487.0000,-1289.0000
1724.0000,-2033.5000,1829.5000,16.0000,-1495.5000,-1253.0000
1725.0000,-2144.0000,1836.5000,16.0000,-1522.5000,-1221.5000
1726.0000,-2256.0000,1830.0000,16.0000,-1547.0000,-1192.5000
1727.0000,-2383.5000,1802.5000,16.5000,-1548.0000,-1165.0000
1728.0000,-2492.0000,1774.0000,16.5000,-1530.5000,-1131.0000
1729.0000,-2587.5000,1746.5000,16.0000,-1486.0000,-1070.5000
1730.0000,-2651.0000,1740.0000,15.5000,-1440.0000,-1008.5000
1731.0000,-2681.0000,1768.0000,15.0000,-1420.5000,-963.0000
1732.0000,-2691.0000,1773.5000,14.0000,-1415.0000,-942.0000
1733.0000,-2678.0000,1744.0000,13.5000,-1422.0000,-959.5000
1734.0000,-2591.0000,1729.0000,13.0000,-1428.0000,-985.0000
1735.0000,-2393.0000,1738.0000,12.5000,-1415.5000,-1004.5000
1736.0000,-2213.0000,1759.0000,12.0000,-1424.0000,-1021.0000
1737.0000,-2024.5000,1791.5000,11.5000,-1498.5000,-1040.5000
1738.0000,-1912.0000,1850.5000,11.5000,-1605.0000,-1034.5000
1739.0000,-1838.5000,1953.0000,11.5000,-1788.0000,-964.5000
1740.0000,-1802.5000,2023.0000,11.0000,-1914.5000,-904.5000
1741.0000,-1791.5000,2060.0000,10.5000,-1923.0000,-883.0000
1742.0000,-1820.5000,2053.5000,10.0000,-1875.5000,-866.5000
1743.0000,-1896.5000,2002.5000,9.5000,-1757.0000,-826.0000
1744.0000,-1976.0000,1958.5000,9.5000,-1674.0000,-771.0000
1745.0000,-2070.5000,1916.5000,10.0000,-1645.0000,-683.5000
1746.0000,-2113.0000,1917.0000,10.5000,-1650.5000,-615.0000
1747.0000,-2132.5000,1944.5000,11.0000,-1687.0000,-572.0000
1748.0000,-2132.5000,1912.5000,12.0000,-1721.0000,-547.5000
1749.0000,-2128.5000,1832.0000,12.5000,-1746.0000,-541.0000
1750.0000,-2141.5000,1761.5000,13.0000,-1752.5000,-541.5000
1751.0000,-2174.0000,1699.0000,13.5000,-1739.5000,-554.0000
1752.0000,-2234.5000,1675.5000,14.0000,-1713.0000,-562.5000
1753.0000,-2314.5000,1671.5000,14.5000,-1669.5000,-573.0000
1754.0000,-2403.5000,1653.5000,14.5000,-1639.5000,-579.5000
1755.0000,-2496.0000,1628.0000,15.0000,-1632.5000,-585.0000
1756.0000,-2575.5000,1629.0000,15.0000,-1647.0000,-574.0000
1757.0000,-2648.5000,1636.5000,14.5000,-1692.5000,-547.5000
1758.0000,-2706.0000,1610.0000,14.5000,-1675.0000,-558.0000
1759.0000,-2751.5000,1566.0000,14.0000,-1590.5000,-609.0000
1760.0000,-2790.0000,1522.0000,13.5000,-1543.5000,-643.5000
1761.0000,-2817.5000,1493.5000,13.0000,-1533.5000,-660.0000
1762.0000,-2830.5000,1542.0000,12.0000,-1544.0000,-690.0000
1763.0000,-2834.5000,1613.5000,11.5000,-1558.0000,-734.0000
1764.0000,-2811.0000,1634.5000,11.0000,-1571.5000,-771.0000
1765.0000,-2781.5000,1629.0000,10.5000,-1581.0000,-799.0000
1766.0000,-2759.5000,1598.0000,10.0000,-1580.5000,-796.0000
1767.0000,-2736.5000,1564.5000,9.5000,-1571.0000,-770.5000
1768.0000,-2679.5000,1544.5000,9.0000,-1585.5000,-736.5000
1769.0000,-2603.0000,1535.5000,8.5000,-1609.0000,-693.0000
1770.0000,-2455.5000,1545.5000,8.0000,-1588.0000,-692.0000
1771.0000,-2316.5000,1557.5000,7.0000,-1528.5000,-711.0000
1772.0000,-2239.5000,1561.5000,6.5000,-1477.0000,-733.0000
1773.0000,-2203.5000,1564.5000,6.0000,-1424.0000,-756.0000
1774.0000,-2218.0000,1574.0000,5.5000,-1357.0000,-776.5000
1775.0000,-2248.0000,1595.0000,5.5000,-1277.0000,-798.5000
1776.0000,-2297.0000,1659.5000,6.0000,-1213.5000,-835.0000
1777.0000,-2330.0000,1726.0000,7.0000,-1156.0000,-878.5000
1778.0000,-2334.5000,1786.5000,7.5000,-1093.0000,-890.0000
1779.0000,-2323.5000,1826.5000,8.5000,-1030.0000,-895.0000
1780.0000,-2298.5000,1831.0000,9.5000,-993.0000,-924.5000
1781.0000,-2261.0000,1836.0000,10.0000,-965.5000,-969.5000
1782.0000,-2198.5000,1866.5000,10.5000,-927.5000,-1023.0000
1783.0000,-2132.0000,1894.5000,11.0000,-876.5000,-1078.5000
1784.0000,-2059.0000,1903.5000,11.0000,-801.0000,-1129.0000
1785.0000,-2003.0000,1915.5000,11.0000,-721.5000,-1174.0000
1786.0000,-1972.0000,1942.0000,11.0000,-658.5000,-1203.0000
1787.0000,-1984.0000,2015.0000,10.5000,-600.5000,-1230.5000
1788.0000,-2056.5000,2188.5000,10.0000,-550.5000,-1279.0000
1789.0000,-2125.0000,2366.0000,10.0000,-499.5000,-1332.0000
1790.0000,-2183.5000,2582.0000,10.0000,-441.5000,-1394.0000
1791.0000,-2224.5000,2751.5000,10.5000,-380.5000,-1445.0000
1792.0000,-2248.5000,2902.0000,11.0000,-298.0000,-1461.5000
1793.0000,-2267.5000,3010.0000,11.0000,-217.5000,-1478.0000
1794.0000,-2279.0000,3108.5000,11.0000,-148.5000,-1529.5000
1795.0000,-2269.5000,3159.0000,11.0000,-87.0000,-1585.5000
1796.0000,-2224.0000,3168.0000,10.5000,-27.5000,-1636.5000
1797.0000,-2157.5000,3175.5000,10.5000,28.5000,-1675.0000
1798.0000,-2051.0000,3188.0000,10.5000,86.0000,-1703.0000
1799.0000,-1956.5000,3210.0000,10.0000,135.5000,-1731.5000
1800.0000,-1857.5000,3237.0000,10.5000,185.5000,-1767.0000
1801.0000,-1784.5000,3266.5000,10.5000,223.5000,-1824.0000
1802.0000,-1726.0000,3297.0000,11.0000,256.5000,-1936.5000
1803.0000,-1701.5000,3323.0000,12.0000,289.5000,-2068.5000
1804.0000,-1705.5000,3341.5000,12.5000,337.5000,-2255.5000
1805.0000,-1691.5000,3352.5000,13.0000,384.5000,-2410.5000
1806.0000,-1664.5000,3354.0000,13.5000,453.5000,-2529.5000
1807.0000,-1660.0000,3345.5000,14.0000,505.0000,-2627.0000
1808.0000,-1682.0000,3327.5000,14.0000,531.5000,-2732.0000
1809.0000,-1718.0000,3305.5000,14.5000,537.5000,-2820.0000
1810.0000,-1775.5000,3274.5000,14.5000,519.5000,-2901.5000
1811.0000,-1862.5000,3242.5000,14.5000,543.5000,-2951.5000
1812.0000,-1979.0000,3210.0000,14.5000,630.0000,-2966.5000
1813.0000,-2082.5000,3181.0000,14.5000,686.5000,-2969.0000
1814.0000,-2196.0000,3158.0000,14.5000,696.0000,-2968.0000
1815.0000,-2326.5000,3144.5000,14.5000,696.5000,-2983.5000
1816.0000,-2471.0000,3137.0000,15.0000,688.0000,-3020.0000
1817.0000,-2569.5000,3137.0000,15.5000,675.5000,-3048.5000
1818.0000,-2639.5000,3147.5000,16.0000,652.0000,-3070.0000
1819.0000,-2659.5000,3162.5000,16.5000,652.5000,-3075.0000
1820.0000,-2663.0000,3181.5000,17.5000,680.5000,-3061.5000
1821.0000,-2674.0000,3203.5000,18.5000,711.5000,-3015.5000
1822.0000,-2679.5000,3223.5000,19.0000,747.0000,-2931.5000
1823.0000,-2643.0000,3241.5000,20.0000,776.0000,-2846.5000
1824.0000,-2596.5000,3245.5000,20.5000,805.5000,-2752.0000
1825.0000,-2583.5000,3191.0000,21.5000,794.0000,-2737.5000
1826.0000,-2569.0000,3120.0000,22.5000,753.5000,-2779.0000
1827.0000,-2499.0000,3102.5000,23.0000,734.0000,-2793.5000
1828.0000,-2437.0000,3112.0000,23.5000,732.5000,-2790.0000
1829.0000,-2474.0000,3168.0000,24.0000,746.0000,-2809.5000
1830.0000,-2540.0000,3213.5000,24.0000,768.5000,-2852.0000
1831.0000,-2614.0000,3192.0000,24.0000,785.0000,-2915.5000
1832.0000,-2659.0000,3152.0000,23.5000,798.5000,-2996.5000
1833.0000,-2633.0000,3121.5000,23.5000,806.5000,-3045.0000
1834.0000,-2594.0000,3099.0000,23.0000,810.0000,-3081.5000
1835.0000,-2567.0000,3083.0000,23.0000,797.5000,-3087.5000
1836.0000,-2551.5000,3075.0000,23.0000,776.5000,-3079.5000
1837.0000,-2545.0000,3074.0000,23.0000,743.5000,-3082.0000
1838.0000,-2548.0000,3082.0000,22.5000,705.5000,-3091.0000
1839.0000,-2558.0000,3096.0000,22.0000,693.0000,-3105.0000
1840.0000,-2576.0000,3113.0000,21.5000,685.5000,-3119.0000
1841.0000,-2600.0000,3132.5000,21.0000,661.0000,-3133.5000
1842.0000,-2624.0000,3153.5000,20.0000,627.5000,-3146.5000
1843.0000,-2649.0000,3171.0000,19.5000,598.5000,-3158.0000
1844.0000,-2671.5000,3183.0000,19.5000,570.0000,-3164.5000
1845.0000,-2686.5000,3192.0000,19.5000,539.5000,-3166.0000
1846.0000,-2696.0000,3193.5000,19.5000,510.5000,-3162.0000
1847.0000,-2696.5000,3189.0000,19.5000,487.5000,-3153.0000
1848.0000,-2689.0000,3177.5000,20.0000,465.5000,-3139.5000
1849.0000,-2673.0000,3160.0000,20.0000,427.5000,-3122.0000
1850.0000,-2650.5000,3139.0000,20.5000,385.5000,-3104.5000
1851.0000,-2625.5000,3116.5000,21.0000,336.0000,-3085.5000
1852.0000,-2596.5000,3095.0000,21.5000,295.5000,-3067.5000
1853.0000,-2568.5000,3074.0000,21.5000,283.5000,-3052.5000
1854.0000,-2543.5000,3056.5000,21.5000,274.0000,-3040.0000
1855.0000,-2523.0000,3045.0000,21.5000,247.5000,-3031.0000
1856.0000,-2511.0000,3038.0000,21.5000,198.0000,-3030.0000
1857.0000,-2506.0000,3035.0000,20.5000,87.5000,-3030.5000
1858.0000,-2505.5000,3038.5000,20.0000,-29.5000,-3036.0000
1859.0000,-2513.5000,3047.0000,19.0000,-165.5000,-3045.0000
1860.0000,-2528.5000,3057.0000,17.5000,-244.0000,-3053.0000
1861.0000,-2547.0000,3069.0000,16.5000,-212.5000,-3063.5000
1862.0000,-2566.0000,3080.0000,15.5000,-174.5000,-3072.5000
1863.0000,-2584.0000,3091.5000,14.5000,-160.5000,-3080.0000
1864.0000,-2601.0000,3102.0000,14.0000,-171.0000,-3083.0000
1865.0000,-2612.5000,3105.5000,13.5000,-205.5000,-3085.0000
1866.0000,-2618.5000,3106.0000,13.5000,-259.0000,-3081.0000
1867.0000,-2618.0000,3102.0000,13.5000,-343.0000,-3072.5000
1868.0000,-2612.0000,3093.0000,14.0000,-417.5000,-3064.5000
1869.0000,-2598.5000,3082.5000,14.5000,-480.5000,-3051.5000
1870.0000,-2580.0000,3067.5000,15.0000,-534.0000,-3036.5000
1871.0000,-2560.5000,3051.0000,15.5000,-595.0000,-3024.0000
1872.0000,-2538.5000,3036.0000,15.5000,-665.5000,-3010.5000
1873.0000,-2515.0000,3021.0000,15.5000,-768.0000,-2997.5000
1874.0000,-2494.0000,3009.0000,15.5000,-777.5000,-2988.0000
1875.0000,-2479.0000,2999.5000,15.5000,-676.5000,-2982.5000
1876.0000,-2466.5000,2995.0000,15.5000,-599.0000,-2978.5000
1877.0000,-2447.0000,2992.5000,15.5000,-548.0000,-2977.0000
1878.0000,-2343.0000,2992.5000,15.5000,-505.5000,-2978.5000
1879.0000,-2213.0000,2995.5000,15.5000,-455.0000,-2985.0000
1880.0000,-2150.0000,3001.0000,15.0000,-415.0000,-2989.0000
1881.0000,-2124.0000,3007.0000,15.0000,-383.5000,-2995.0000
1882.0000,-2150.5000,3014.5000,15.0000,-364.5000,-3000.0000
1883.0000,-2196.0000,3020.5000,14.5000,-350.0000,-3005.0000
1884.0000,-2254.5000,3022.5000,14.0000,-377.0000,-3007.5000
1885.0000,-2311.5000,3023.0000,13.5000,-424.5000,-3008.0000
1886.0000,-2350.5000,3024.5000,13.0000,-345.0000,-3004.5000
1887.0000,-2371.0000,3021.0000,12.5000,-164.5000,-2997.5000
1888.0000,-2353.0000,3014.5000,11.5000,-53.0000,-2990.0000
1889.0000,-2305.0000,3006.0000,11.0000,18.0000,-2983.0000
1890.0000,-2203.5000,2996.5000,11.0000,80.5000,-2971.5000
1891.0000,-2112.5000,2987.0000,10.5000,150.0000,-2961.5000
1892.0000,-2095.0000,2977.0000,10.0000,204.5000,-2951.0000
1893.0000,-2098.5000,2966.0000,10.0000,254.0000,-2941.5000
1894.0000,-2089.5000,2957.5000,10.0000,300.0000,-2935.0000
1895.0000,-2074.5000,2952.0000,10.0000,350.0000,-2929.5000
1896.0000,-2040.5000,2948.0000,10.0000,397.0000,-2926.0000
1897.0000,-2003.0000,2944.5000,10.0000,449.0000,-2923.0000
1898.0000,-1948.5000,2942.0000,10.0000,514.0000,-2924.0000
1899.0000,-1902.5000,2942.0000,9.5000,584.5000,-2927.0000
1900.0000,-1862.5000,2944.0000,9.5000,645.5000,-2928.5000
1901.0000,-1851.5000,2946.5000,9.0000,699.0000,-2929.0000
1902.0000,-1895.5000,2946.5000,9.0000,751.5000,-2933.0000
1903.0000,-1948.0000,2948.0000,8.5000,797.0000,-2931.0000
1904.0000,-2021.0000,2947.0000,8.0000,819.5000,-2908.5000
1905.0000,-2078.5000,2940.0000,7.5000,831.5000,-2871.5000
1906.0000,-2133.0000,2917.0000,7.0000,837.0000,-2788.5000
1907.0000,-2169.5000,2890.5000,6.5000,839.0000,-2698.0000
1908.0000,-2206.0000,2860.5000,6.0000,829.5000,-2630.5000
1909.0000,-2223.5000,2837.0000,5.0000,822.0000,-2555.5000
1910.0000,-2230.5000,2817.5000,4.5000,834.5000,-2414.5000
1911.0000,-2227.0000,2798.5000,4.0000,851.0000,-2264.0000
1912.0000,-2215.0000,2772.5000,3.5000,857.5000,-2113.5000
1913.0000,-2189.5000,2766.5000,3.5000,874.0000,-1972.0000
1914.0000,-2140.0000,2793.0000,3.5000,922.0000,-1835.5000
1915.0000,-2134.0000,2826.5000,3.5000,962.5000,-1725.0000
1916.0000,-2169.0000,2876.0000,4.0000,974.5000,-1651.0000
1917.0000,-2179.5000,2893.5000,4.0000,984.0000,-1571.5000
1918.0000,-2145.5000,2879.0000,4.5000,1009.0000,-1439.0000
1919.0000,-2119.0000,2865.5000,5.0000,1027.5000,-1312.5000
1920.0000,-2102.5000,2856.5000,5.5000,1031.0000,-1204.0000
1921.0000,-2124.5000,2854.5000,6.0000,1027.0000,-1120.0000
1922.0000,-2177.0000,2853.5000,7.0000,1020.0000,-1050.5000
1923.0000,-2199.0000,2855.5000,8.0000,1020.5000,-980.5000
1924.0000,-2198.0000,2860.0000,9.0000,1044.5000,-890.5000
1925.0000,-2162.5000,2865.0000,10.5000,1078.5000,-813.0000
1926.0000,-2098.5000,2872.0000,11.0000,1134.0000,-749.5000
1927.0000,-2000.5000,2879.0000,12.0000,1196.0000,-703.0000
1928.0000,-1876.5000,2883.0000,13.0000,1277.0000,-668.0000
1929.0000,-1777.0000,2887.0000,13.5000,1341.5000,-657.5000
1930.0000,-1696.0000,2889.0000,13.5000,1403.5000,-677.0000
1931.0000,-1674.0000,2887.5000,13.5000,1441.0000,-699.0000
1932.0000,-1688.5000,2883.5000,13.5000,1460.5000,-719.0000
1933.0000,-1712.5000,2877.5000,13.5000,1478.5000,-728.5000
1934.0000,-1749.0000,2869.0000,13.0000,1491.0000,-736.5000
1935.0000,-1822.5000,2858.0000,12.5000,1499.0000,-747.0000
1936.0000,-1918.5000,2847.0000,12.0000,1505.5000,-761.0000
1937.0000,-2021.0000,2834.5000,11.5000,1516.0000,-743.0000
1938.0000,-2127.5000,2823.5000,10.5000,1531.0000,-689.0000
1939.0000,-2222.5000,2813.5000,10.0000,1549.5000,-640.0000
1940.0000,-2305.0000,2806.0000,9.5000,1577.5000,-588.5000
1941.0000,-2340.5000,2801.0000,9.5000,1588.5000,-532.0000
1942.0000,-2357.0000,2798.0000,9.0000,1584.5000,-454.5000
1943.0000,-2348.5000,2795.5000,9.0000,1566.0000,-372.0000
1944.0000,-2332.5000,2798.5000,9.5000,1530.0000,-272.0000
1945.0000,-2320.5000,2800.5000,10.0000,1504.5000,-201.0000
1946.0000,-2313.0000,2802.5000,10.5000,1488.0000,-139.0000
1947.0000,-2309.5000,2798.5000,11.0000,1483.5000,-92.5000
1948.0000,-2307.0000,2781.0000,11.5000,1487.0000,-44.0000
1949.0000,-2307.5000,2725.5000,12.0000,1494.5000,-1.5000
1950.0000,-2294.5000,2682.0000,12.5000,1505.5000,43.0000
1951.0000,-2224.0000,2730.0000,13.0000,1536.0000,72.5000
1952.0000,-2129.0000,2796.0000,13.5000,1583.5000,100.0000
1953.0000,-1985.0000,2814.5000,13.5000,1625.5000,101.5000
1954.0000,-1843.5000,2812.0000,14.0000,1667.0000,89.5000
1955.0000,-1713.0000,2798.5000,14.5000,1694.5000,68.5000
1956.0000,-1589.5000,2784.0000,14.5000,1715.0000,41.0000
1957.0000,-1448.5000,2770.5000,14.5000,1744.5000,40.5000
1958.0000,-1338.0000,2757.0000,15.0000,1772.5000,44.5000
1959.0000,-1295.5000,2745.5000,15.0000,1769.5000,29.0000
1960.0000,-1276.5000,2729.0000,15.0000,1758.0000,5.5000
1961.0000,-1292.5000,2686.5000,14.5000,1772.5000,1.0000
1962.0000,-1295.5000,2653.0000,14.0000,1805.0000,6.0000
1963.0000,-1285.0000,2645.0000,13.5000,1875.5000,19.5000
1964.0000,-1289.5000,2638.0000,12.0000,1954.0000,25.0000
1965.0000,-1351.5000,2614.0000,11.0000,2025.5000,-7.5000
1966.0000,-1402.5000,2605.0000,10.0000,2086.5000,-56.0000
1967.0000,-1445.0000,2628.5000,9.5000,2127.5000,-121.5000
1968.0000,-1515.5000,2626.5000,9.0000,2146.0000,-204.0000
1969.0000,-1667.0000,2568.0000,9.5000,2113.0000,-355.0000
1970.0000,-1827.0000,2484.5000,10.5000,2058.0000,-506.5000
1971.0000,-2023.0000,2358.0000,11.5000,1953.5000,-621.0000
1972.0000,-2134.0000,2270.5000,12.5000,1842.5000,-702.0000
1973.0000,-2157.0000,2216.0000,13.0000,1702.0000,-739.5000
1974.0000,-2187.5000,2152.0000,14.0000,1563.0000,-764.5000
1975.0000,-2236.0000,2049.5000,15.0000,1411.0000,-789.0000
1976.0000,-2288.0000,1965.5000,15.5000,1283.5000,-825.0000
1977.0000,-2334.5000,1890.0000,16.5000,1180.0000,-896.5000
1978.0000,-2373.5000,1812.0000,17.5000,1081.0000,-979.0000
1979.0000,-2400.5000,1708.0000,18.0000,947.0000,-1083.0000
1980.0000,-2414.5000,1627.0000,19.0000,815.0000,-1166.0000
1981.0000,-2413.0000,1560.0000,19.5000,671.0000,-1208.5000
1982.0000,-2397.5000,1516.0000,19.5000,534.5000,-1235.5000
1983.0000,-2365.5000,1488.5000,19.5000,384.5000,-1248.5000
1984.0000,-2327.5000,1476.0000,19.5000,253.5000,-1257.0000
1985.0000,-2280.5000,1474.0000,19.0000,139.5000,-1257.0000
1986.0000,-2232.0000,1469.5000,19.0000,40.5000,-1264.5000
1987.0000,-2186.5000,1458.0000,18.5000,-60.5000,-1285.5000
1988.0000,-2148.0000,1410.5000,18.0000,-139.0000,-1324.0000
1989.0000,-2119.0000,1333.0000,18.0000,-196.0000,-1402.0000
1990.0000,-2102.5000,1270.5000,17.5000,-220.0000,-1450.0000
1991.0000,-2098.5000,1216.5000,17.0000,-207.0000,-1475.0000
1992.0000,-2108.0000,1189.0000,17.0000,-191.0000,-1455.0000
1993.0000,-2127.0000,1174.5000,16.5000,-164.5000,-1380.5000
1994.0000,-2157.0000,1152.5000,16.0000,-134.5000,-1265.5000
1995.0000,-2190.5000,1123.5000,15.0000,-97.0000,-1085.0000
1996.0000,-2225.5000,1122.0000,14.5000,-37.0000,-917.5000
1997.0000,-2259.0000,1127.0000,14.0000,52.0000,-740.0000
1998.0000,-2286.5000,1119.0000,13.5000,134.0000,-628.0000
1999.0000,-2293.5000,1099.0000,13.5000,215.0000,-558.5000
2000.0000,-2234.5000,1056.0000,13.5000,253.5000,-551.5000
2001.0000,-2153.5000,1006.0000,14.0000,261.5000,-583.5000
2002.0000,-2129.5000,982.5000,14.0000,309.5000,-537.0000
2003.0000,-2093.5000,975.0000,14.5000,399.5000,-408.5000
2004.0000,-1887.5000,997.0000,15.0000,431.5000,-354.0000
2005.0000,-1642.5000,1031.0000,16.0000,422.0000,-349.5000
2006.0000,-1506.5000,1058.5000,16.5000,415.0000,-334.0000
2007.0000,-1420.0000,1074.5000,17.0000,418.0000,-299.0000
2008.0000,-1359.5000,1061.0000,16.5000,422.5000,-244.0000
2009.0000,-1301.5000,1045.0000,16.5000,432.0000,-172.0000
2010.0000,-1221.5000,1046.5000,16.5000,421.5000,-99.0000
2011.0000,-1143.5000,1055.5000,16.5000,398.0000,-24.5000
2012.0000,-1063.0000,1064.5000,17.0000,378.0000,59.5000
2013.0000,-986.0000,1071.0000,17.0000,358.5000,147.0000
2014.0000,-891.0000,1085.5000,17.5000,336.0000,192.5000
2015.0000,-802.0000,1096.5000,17.5000,312.0000,211.0000
2016.0000,-712.5000,1090.5000,17.0000,298.5000,209.5000
2017.0000,-647.0000,1081.5000,16.5000,287.5000,200.0000
2018.0000,-620.5000,1086.5000,16.0000,277.0000,200.0000
2019.0000,-620.5000,1085.0000,16.0000,262.0000,203.0000
2020.0000,-660.5000,1072.0000,16.0000,257.0000,198.0000
2021.0000,-701.0000,1058.0000,15.5000,248.5000,188.0000
2022.0000,-745.5000,1051.5000,15.5000,226.0000,165.0000
2023.0000,-763.0000,1043.0000,15.5000,200.5000,148.5000
2024.0000,-735.5000,1033.0000,15.0000,190.0000,173.0000
2025.0000,-716.5000,1015.5000,15.0000,178.0000,214.0000
2026.0000,-735.0000,978.5000,15.0000,151.0000,247.5000
2027.0000,-739.0000,951.0000,14.5000,121.0000,283.5000
2028.0000,-712.5000,939.5000,14.0000,117.0000,348.5000
2029.0000,-700.0000,923.5000,13.5000,117.0000,407.5000
2030.0000,-716.5000,888.0000,13.0000,110.0000,425.5000
2031.0000,-723.5000,874.5000,13.0000,107.5000,441.5000
2032.0000,-711.0000,886.5000,13.0000,111.5000,489.5000
2033.0000,-715.5000,907.5000,13.0000,113.5000,534.5000
2034.0000,-741.0000,932.5000,13.0000,79.0000,539.5000
2035.0000,-780.5000,950.5000,13.0000,50.5000,529.5000
2036.0000,-833.5000,963.5000,12.5000,54.5000,518.5000
2037.0000,-888.0000,936.5000,12.5000,77.0000,499.5000
2038.0000,-951.0000,856.0000,12.5000,123.5000,457.0000
2039.0000,-994.0000,756.0000,12.5000,170.5000,418.5000
2040.0000,-1029.5000,619.5000,12.5000,224.0000,395.0000
2041.0000,-1027.0000,521.5000,12.0000,226.5000,398.0000
2042.0000,-995.5000,447.5000,11.5000,127.5000,457.0000
2043.0000,-991.5000,392.0000,10.5000,78.5000,499.5000
2044.0000,-1015.5000,343.5000,9.5000,153.5000,500.5000
2045.0000,-1045.5000,336.0000,8.5000,213.0000,501.0000
2046.0000,-1087.5000,363.5000,7.5000,218.0000,524.0000
2047.0000,-1117.5000,401.5000,6.0000,211.0000,545.5000
2048.0000,-1139.5000,452.0000,5.0000,217.0000,567.0000
2049.0000,-1169.0000,444.5000,3.5000,209.0000,590.5000
2050.0000,-1204.0000,407.0000,2.0000,176.0000,631.0000
2051.0000,-1218.0000,387.0000,0.5000,51.0000,661.0000
2052.0000,-1219.0000,381.0000,-1.0000,-211.0000,689.0000
2053.0000,-1220.0000,376.0000,-2.5000,-262.0000,702.0000
2054.0000,-1215.5000,378.0000,-3.5000,-42.0000,695.5000
2055.0000,-1169.0000,462.0000,-4.5000,106.0000,675.5000
2056.0000,-1094.5000,582.0000,-5.0000,152.5000,638.0000
2057.0000,-1017.5000,609.5000,-5.5000,163.5000,651.5000
2058.0000,-929.0000,587.0000,-5.5000,163.0000,718.5000
2059.0000,-844.0000,553.0000,-5.5000,159.5000,765.5000
2060.0000,-760.5000,520.0000,-5.0000,151.0000,800.0000
2061.0000,-723.5000,530.5000,-5.0000,131.0000,813.5000
2062.0000,-702.0000,559.0000,-4.5000,99.5000,823.5000
2063.0000,-681.0000,604.5000,-4.5000,92.5000,860.0000
2064.0000,-654.0000,652.5000,-4.0000,110.5000,927.5000
2065.0000,-613.5000,693.0000,-4.0000,142.5000,973.5000
2066.0000,-582.5000,719.0000,-3.5000,192.0000,1015.0000
2067.0000,-598.0000,701.5000,-3.5000,236.5000,1019.0000
2068.0000,-626.5000,666.5000,-3.5000,282.0000,1004.0000
2069.0000,-644.5000,596.5000,-3.5000,334.5000,1014.0000
2070.0000,-644.5000,534.5000,-3.5000,402.0000,1047.0000
2071.0000,-600.5000,528.0000,-3.0000,492.0000,1085.0000
2072.0000,-564.0000,530.5000,-3.0000,598.0000,1125.0000
2073.0000,-575.0000,497.5000,-2.5000,654.5000,1121.5000
2074.0000,-585.5000,469.0000,-2.0000,690.5000,1098.0000
2075.0000,-543.0000,474.0000,-1.5000,722.5000,1090.5000
2076.0000,-496.5000,483.5000,-1.5000,758.0000,1094.0000
2077.0000,-457.5000,464.0000,-1.5000,793.0000,1120.5000
2078.0000,-415.0000,436.0000,-2.0000,825.0000,1156.0000
2079.0000,-333.5000,404.0000,-2.0000,850.5000,1194.0000
2080.0000,-267.0000,371.0000,-2.5000,872.0000,1223.0000
2081.0000,-229.0000,340.5000,-2.5000,884.0000,1226.5000
2082.0000,-214.0000,312.5000,-2.5000,900.0000,1233.0000
2083.0000,-233.0000,285.0000,-3.0000,952.0000,1302.5000
2084.0000,-241.0000,274.5000,-3.5000,1010.0000,1399.0000
2085.0000,-235.0000,294.5000,-4.0000,1037.0000,1499.5000
2086.0000,-220.0000,266.5000,-4.5000,1047.5000,1620.5000
2087.0000,-208.0000,139.0000,-4.5000,1029.5000,1829.0000
2088.0000,-196.5000,33.0000,-4.5000,1019.5000,2045.5000
2089.0000,-195.0000,-31.0000,-5.0000,1068.5000,2200.5000
2090.0000,-192.0000,-39.0000,-5.5000,1131.5000,2310.5000
2091.0000,-187.0000,19.5000,-6.0000,1198.0000,2345.5000
2092.0000,-194.5000,55.5000,-6.5000,1261.0000,2378.0000
2093.0000,-221.5000,51.0000,-7.0000,1348.0000,2461.0000
