,TIME,EMG1,EMG2,IO,EMG3,EMG4
1,09:30:25.160,-1191.0,-814.5,-7.5,-280.5,-2905.0
3,09:30:25.162,-1205.5,-799.0,-6.0,-289.0,-2925.5
5,09:30:25.164,-1231.5,-812.0,-4.0,-305.5,-2915.5
7,09:30:25.166,-1273.0,-809.0,-2.5,-316.5,-2904.0
9,09:30:25.168,-1336.0,-806.0,-0.5,-352.0,-2899.5
11,09:30:25.170,-1375.0,-769.0,0.0,-371.0,-2895.5
13,09:30:25.172,-1409.0,-705.0,1.0,-368.0,-2894.0
15,09:30:25.174,-1420.0,-636.0,1.5,-371.5,-2858.0
17,09:30:25.176,-1448.0,-568.0,1.0,-378.0,-2859.5
19,09:30:25.178,-1476.0,-505.0,0.0,-379.0,-2905.5
21,09:30:25.180,-1496.0,-457.5,-1.0,-383.0,-2912.0
23,09:30:25.182,-1535.0,-445.5,-2.0,-414.0,-2956.5
25,09:30:25.184,-1562.0,-438.0,-2.5,-417.5,-3045.5
27,09:30:25.186,-1565.5,-433.5,-2.5,-423.0,-3007.5
29,09:30:25.188,-1579.5,-455.0,-2.0,-428.5,-2978.5
31,09:30:25.190,-1643.5,-505.0,-1.0,-470.0,-3097.5
33,09:30:25.192,-1663.5,-517.5,0.0,-474.5,-3043.0
35,09:30:25.194,-1671.0,-509.5,2.0,-462.0,-2939.0
37,09:30:25.196,-1666.5,-481.0,4.0,-452.0,-2910.0
39,09:30:25.198,-1652.5,-474.0,5.0,-431.0,-2856.0
41,09:30:25.200,-1643.0,-471.0,6.5,-445.0,-2810.5
43,09:30:25.202,-1647.5,-492.0,8.0,-452.0,-2830.5
45,09:30:25.204,-1654.5,-483.5,10.0,-457.0,-2825.5
47,09:30:25.206,-1639.5,-427.0,11.5,-447.0,-2724.5
49,09:30:25.208,-1628.5,-401.0,12.5,-447.0,-2673.0
51,09:30:25.210,-1620.5,-380.0,13.0,-446.0,-2646.5
53,09:30:25.212,-1590.5,-341.5,13.0,-428.5,-2588.5
55,09:30:25.214,-1557.0,-324.0,13.5,-423.5,-2587.5
57,09:30:25.216,-1518.5,-298.0,14.0,-406.0,-2588.5
59,09:30:25.218,-1514.0,-302.0,14.0,-397.5,-2544.5
61,09:30:25.220,-1496.5,-304.0,14.0,-404.5,-2471.5
63,09:30:25.222,-1472.5,-301.0,12.5,-401.0,-2368.5
65,09:30:25.224,-1421.0,-248.5,10.5,-389.0,-2274.0
67,09:30:25.226,-1356.5,-186.5,9.0,-383.5,-2220.0
69,09:30:25.228,-1301.5,-119.0,8.5,-378.0,-2184.0
71,09:30:25.230,-1220.0,-35.0,7.5,-350.5,-2146.0
73,09:30:25.232,-1132.5,59.5,6.5,-321.5,-2106.5
75,09:30:25.234,-1053.5,148.5,7.0,-296.0,-2043.5
77,09:30:25.236,-1010.5,192.0,8.5,-305.5,-1990.0
79,09:30:25.238,-936.5,260.0,10.0,-284.5,-1938.5
81,09:30:25.240,-887.5,299.5,11.0,-267.0,-1890.5
83,09:30:25.242,-843.5,315.0,12.0,-266.0,-1841.5
85,09:30:25.244,-762.0,345.5,11.5,-251.0,-1772.5
87,09:30:25.246,-720.0,330.5,10.5,-253.5,-1713.5
89,09:30:25.248,-617.0,349.5,10.0,-229.0,-1612.0
91,09:30:25.250,-553.5,336.5,10.0,-220.5,-1570.0
93,09:30:25.252,-465.5,355.5,11.0,-202.5,-1520.5
95,09:30:25.254,-417.5,354.5,12.0,-192.5,-1487.0
97,09:30:25.256,-340.0,378.5,13.0,-174.5,-1427.0
99,09:30:25.258,-248.5,401.0,13.5,-147.0,-1345.5
101,09:30:25.260,-171.5,400.5,14.5,-136.0,-1266.5
103,09:30:25.262,-126.0,355.5,16.5,-153.5,-1195.0
105,09:30:25.264,-18.5,375.0,18.5,-111.0,-1063.0
107,09:30:25.266,57.0,346.5,20.0,-119.5,-973.5
109,09:30:25.268,135.0,337.0,20.0,-102.0,-851.5
111,09:30:25.270,190.5,309.5,20.0,-106.5,-750.5
113,09:30:25.272,248.0,272.0,20.0,-110.0,-663.5
115,09:30:25.274,304.0,250.0,20.0,-101.5,-552.0
117,09:30:25.276,369.0,251.5,19.5,-105.5,-447.0
119,09:30:25.278,379.5,217.5,19.0,-109.0,-362.5
121,09:30:25.280,439.0,204.0,18.0,-100.0,-273.0
123,09:30:25.282,514.0,222.5,17.5,-61.5,-148.5
125,09:30:25.284,509.5,198.0,16.5,-66.0,-88.0
127,09:30:25.286,487.5,178.0,15.0,-70.0,-34.0
129,09:30:25.288,477.5,168.5,13.5,-60.0,37.0
131,09:30:25.290,471.0,169.5,13.0,-54.0,93.5
133,09:30:25.292,439.5,151.5,12.0,-65.0,121.5
135,09:30:25.294,408.0,153.5,11.5,-55.0,160.5
137,09:30:25.296,364.0,143.5,11.0,-55.0,167.5
139,09:30:25.298,333.0,119.5,10.5,-50.5,178.5
141,09:30:25.300,325.0,83.5,10.5,-48.5,202.5
143,09:30:25.302,334.5,50.5,10.5,-67.5,200.0
145,09:30:25.304,377.0,68.5,10.5,-38.0,248.0
147,09:30:25.306,372.0,68.5,10.5,-43.0,272.0
149,09:30:25.308,372.0,47.0,9.5,-45.0,280.0
151,09:30:25.310,360.0,7.0,8.0,-44.0,296.0
153,09:30:25.312,305.0,-29.0,7.0,-52.5,300.0
155,09:30:25.314,240.5,-17.0,5.5,-45.0,317.0
157,09:30:25.316,189.0,19.5,3.5,-39.5,331.0
159,09:30:25.318,139.5,23.5,3.0,-35.5,332.5
161,09:30:25.320,113.5,1.5,3.0,-37.5,310.5
163,09:30:25.322,97.5,-16.5,3.5,-29.5,293.5
165,09:30:25.324,85.5,-47.0,4.5,-30.5,280.5
167,09:30:25.326,95.5,-72.5,5.5,-23.5,292.0
169,09:30:25.328,94.0,-109.5,7.0,-37.5,283.0
171,09:30:25.330,119.5,-154.5,9.5,-24.0,297.5
173,09:30:25.332,163.5,-172.5,12.0,-0.5,333.5
175,09:30:25.334,184.5,-192.0,15.0,-10.5,323.0
177,09:30:25.336,195.5,-216.5,17.0,-20.5,303.5
179,09:30:25.338,182.0,-274.0,19.0,-32.5,287.5
181,09:30:25.340,166.0,-252.0,20.0,-32.5,298.5
183,09:30:25.342,153.5,-239.0,19.5,-25.0,314.5
185,09:30:25.344,155.0,-226.0,18.5,-3.0,326.0
187,09:30:25.346,94.0,-237.5,18.0,-16.0,315.0
189,09:30:25.348,50.5,-258.0,17.0,-22.0,324.5
191,09:30:25.350,42.5,-269.5,16.0,-21.5,324.5
193,09:30:25.352,-8.0,-304.5,15.5,-35.0,302.5
195,09:30:25.354,-67.0,-365.5,15.5,-66.0,287.5
197,09:30:25.356,-119.0,-383.0,15.5,-96.0,294.0
199,09:30:25.358,-152.0,-435.0,16.0,-119.5,288.0
201,09:30:25.360,-200.0,-438.5,16.0,-121.5,287.0
203,09:30:25.362,-240.5,-454.0,15.5,-108.0,313.0
205,09:30:25.364,-345.0,-480.5,16.0,-136.0,312.5
207,09:30:25.366,-405.0,-486.5,17.0,-136.5,316.5
209,09:30:25.368,-467.5,-491.5,18.0,-145.0,315.0
211,09:30:25.370,-544.5,-510.0,18.5,-167.0,292.5
213,09:30:25.372,-659.5,-567.5,17.0,-202.0,256.0
215,09:30:25.374,-677.5,-555.0,14.0,-171.0,276.0
217,09:30:25.376,-686.5,-541.5,10.0,-141.5,292.0
219,09:30:25.378,-769.5,-587.0,7.5,-193.5,244.0
221,09:30:25.380,-814.5,-603.5,6.0,-190.5,223.5
223,09:30:25.382,-837.0,-581.5,5.5,-169.0,237.5
225,09:30:25.384,-917.5,-617.5,5.5,-197.5,182.5
227,09:30:25.386,-1003.5,-641.5,5.0,-225.0,114.0
229,09:30:25.388,-1034.5,-608.0,4.0,-208.0,92.5
231,09:30:25.390,-1071.0,-598.5,1.5,-209.5,59.5
233,09:30:25.392,-1136.5,-628.5,-2.5,-256.0,-11.5
235,09:30:25.394,-1140.0,-611.0,-6.5,-240.0,-42.5
237,09:30:25.396,-1148.0,-611.0,-10.5,-235.5,-75.0
239,09:30:25.398,-1168.0,-609.0,-13.0,-239.5,-124.5
241,09:30:25.400,-1207.5,-618.0,-14.5,-261.5,-181.5
243,09:30:25.402,-1243.0,-624.5,-16.0,-263.0,-227.5
245,09:30:25.404,-1283.5,-624.5,-17.0,-272.0,-291.0
247,09:30:25.406,-1299.5,-623.0,-18.0,-282.0,-344.5
249,09:30:25.408,-1300.0,-635.5,-19.5,-278.5,-376.0
251,09:30:25.410,-1311.5,-655.5,-20.0,-296.5,-427.5
253,09:30:25.412,-1320.0,-640.0,-20.5,-292.0,-457.0
255,09:30:25.414,-1331.5,-655.0,-21.0,-304.5,-497.0
257,09:30:25.416,-1329.0,-667.5,-21.5,-300.0,-527.5
259,09:30:25.418,-1309.0,-670.0,-22.0,-294.0,-544.5
261,09:30:25.420,-1269.0,-664.5,-23.0,-278.5,-544.5
263,09:30:25.422,-1269.0,-688.5,-23.5,-288.0,-580.0
265,09:30:25.424,-1296.5,-728.5,-24.0,-312.0,-631.5
267,09:30:25.426,-1294.0,-733.0,-24.0,-306.0,-652.0
269,09:30:25.428,-1271.0,-714.5,-23.0,-281.5,-648.0
271,09:30:25.430,-1272.5,-714.0,-21.5,-286.0,-674.0
273,09:30:25.432,-1263.5,-719.0,-19.5,-306.5,-718.5
275,09:30:25.434,-1201.0,-695.5,-17.5,-295.5,-728.0
277,09:30:25.436,-1133.5,-671.0,-15.0,-279.0,-730.0
279,09:30:25.438,-1065.0,-659.5,-13.5,-267.0,-739.0
281,09:30:25.440,-1026.0,-660.5,-13.0,-273.0,-759.0
283,09:30:25.442,-982.0,-641.5,-12.5,-267.0,-770.5
285,09:30:25.444,-887.5,-586.5,-12.5,-217.5,-749.5
287,09:30:25.446,-798.5,-531.5,-12.0,-180.5,-723.5
289,09:30:25.448,-730.0,-474.5,-11.5,-149.5,-703.0
291,09:30:25.450,-663.0,-429.5,-11.5,-89.0,-689.0
293,09:30:25.452,-595.5,-393.5,-10.5,-40.5,-678.0
295,09:30:25.454,-539.5,-367.5,-9.5,-7.0,-660.0
297,09:30:25.456,-514.0,-357.0,-8.5,52.0,-654.5
299,09:30:25.458,-448.0,-325.5,-7.5,124.5,-639.0
301,09:30:25.460,-372.5,-270.5,-7.5,226.5,-597.0
303,09:30:25.462,-319.0,-221.0,-7.0,389.0,-579.0
305,09:30:25.464,-370.5,-246.5,-6.5,522.5,-631.5
307,09:30:25.466,-496.5,-370.0,-6.5,565.0,-798.0
309,09:30:25.468,-709.5,-596.5,-7.0,511.5,-1044.5
311,09:30:25.470,-831.0,-721.0,-7.5,350.5,-1219.0
313,09:30:25.472,-941.0,-839.0,-8.0,149.0,-1370.0
315,09:30:25.474,-1038.0,-947.5,-9.0,-22.5,-1508.5
317,09:30:25.476,-1170.5,-1062.5,-10.0,-207.5,-1668.5
319,09:30:25.478,-1316.5,-1206.0,-11.5,-441.5,-1844.0
321,09:30:25.480,-1415.0,-1276.0,-12.5,-742.5,-1951.0
323,09:30:25.482,-1412.0,-1245.0,-14.5,-906.0,-1962.0
325,09:30:25.484,-1430.0,-1259.0,-16.5,-1071.0,-1999.5
327,09:30:25.486,-1469.0,-1271.0,-18.5,-1163.0,-2069.0
329,09:30:25.488,-1572.0,-1327.0,-19.5,-1254.0,-2176.5
331,09:30:25.490,-1579.5,-1324.5,-19.5,-1299.5,-2219.5
333,09:30:25.492,-1450.5,-1209.5,-18.0,-1184.5,-2134.5
335,09:30:25.494,-1303.5,-1077.0,-15.0,-1038.5,-2047.0
337,09:30:25.496,-1167.0,-948.0,-12.0,-839.5,-1966.5
339,09:30:25.498,-1132.0,-918.0,-11.0,-706.5,-1972.0
341,09:30:25.500,-1078.5,-873.5,-11.0,-624.0,-1966.5
343,09:30:25.502,-998.0,-810.0,-11.5,-562.5,-1950.0
345,09:30:25.504,-898.0,-724.0,-12.0,-480.5,-1922.5
347,09:30:25.506,-816.5,-636.5,-13.0,-421.5,-1895.0
349,09:30:25.508,-748.5,-558.5,-14.0,-366.5,-1846.5
351,09:30:25.510,-730.5,-512.5,-15.0,-332.5,-1862.5
353,09:30:25.512,-734.5,-454.0,-15.5,-276.5,-1819.0
355,09:30:25.514,-691.5,-433.5,-15.5,-227.5,-1821.5
357,09:30:25.516,-698.0,-448.0,-15.0,-210.5,-1849.5
359,09:30:25.518,-742.0,-459.5,-14.5,-209.0,-1908.5
361,09:30:25.520,-790.5,-442.5,-13.5,-214.0,-1984.5
363,09:30:25.522,-831.5,-453.5,-13.0,-261.5,-2071.0
365,09:30:25.524,-770.0,-432.0,-13.0,-251.0,-2050.0
367,09:30:25.526,-715.0,-415.0,-13.0,-239.5,-1983.0
369,09:30:25.528,-686.5,-402.0,-12.5,-248.5,-1918.5
371,09:30:25.530,-625.5,-337.5,-12.0,-218.5,-1844.0
373,09:30:25.532,-577.0,-272.0,-11.5,-187.0,-1777.5
375,09:30:25.534,-575.5,-235.0,-11.5,-164.5,-1704.5
377,09:30:25.536,-603.0,-213.5,-11.5,-152.5,-1649.0
379,09:30:25.538,-636.0,-179.5,-11.5,-139.5,-1631.0
381,09:30:25.540,-647.0,-159.5,-10.5,-121.5,-1609.5
383,09:30:25.542,-646.0,-154.5,-9.0,-132.5,-1648.5
385,09:30:25.544,-624.0,-130.5,-6.5,-123.0,-1636.5
387,09:30:25.546,-587.5,-108.0,-4.5,-122.0,-1570.0
389,09:30:25.548,-570.5,-108.0,-2.5,-105.0,-1463.5
391,09:30:25.550,-606.5,-110.5,-1.0,-84.5,-1367.0
393,09:30:25.552,-629.0,-100.5,0.0,-67.0,-1298.5
395,09:30:25.554,-583.5,-100.0,1.0,-60.0,-1253.0
397,09:30:25.556,-574.0,-112.5,1.5,-48.0,-1214.0
399,09:30:25.558,-557.0,-105.0,2.0,-41.0,-1158.0
401,09:30:25.560,-488.0,-79.5,1.5,-20.0,-1062.0
403,09:30:25.562,-457.5,-76.0,1.0,-34.5,-1017.5
405,09:30:25.564,-436.5,-69.5,1.0,-44.0,-961.0
407,09:30:25.566,-353.5,-35.5,0.0,-31.5,-869.0
409,09:30:25.568,-239.5,6.0,-0.5,-16.5,-808.5
411,09:30:25.570,-110.0,46.5,-2.0,-14.0,-780.5
413,09:30:25.572,25.5,110.0,-3.5,16.0,-740.5
415,09:30:25.574,142.5,132.0,-4.5,15.5,-737.5
417,09:30:25.576,214.5,159.0,-5.0,17.5,-747.5
419,09:30:25.578,253.5,161.0,-5.0,17.5,-740.5
421,09:30:25.580,311.5,139.5,-6.5,11.5,-732.5
423,09:30:25.582,372.5,160.0,-8.5,32.0,-681.0
425,09:30:25.584,307.0,150.5,-10.5,17.0,-636.5
427,09:30:25.586,387.5,209.5,-11.5,32.5,-589.5
429,09:30:25.588,514.0,282.0,-11.5,81.5,-527.0
431,09:30:25.590,591.5,320.0,-10.5,96.0,-494.0
433,09:30:25.592,679.5,325.5,-9.5,91.0,-469.0
435,09:30:25.594,763.5,370.0,-9.0,102.5,-428.0
437,09:30:25.596,728.0,376.0,-8.5,99.0,-401.0
439,09:30:25.598,707.0,379.5,-8.0,104.0,-370.0
441,09:30:25.600,711.0,382.0,-7.5,110.0,-325.0
443,09:30:25.602,743.0,379.5,-6.5,128.5,-261.5
445,09:30:25.604,689.0,405.5,-5.5,128.5,-228.5
447,09:30:25.606,555.5,432.5,-4.5,125.0,-240.5
449,09:30:25.608,430.0,465.5,-5.0,128.5,-265.0
451,09:30:25.610,408.0,511.0,-6.0,136.0,-282.0
453,09:30:25.612,340.5,534.0,-7.5,134.5,-296.0
455,09:30:25.614,340.5,561.5,-8.5,157.5,-271.5
457,09:30:25.616,343.0,553.5,-9.5,149.5,-257.0
459,09:30:25.618,347.5,556.0,-10.0,153.0,-191.5
461,09:30:25.620,384.5,553.5,-10.5,146.0,-134.5
463,09:30:25.622,401.0,545.0,-11.0,171.0,-98.0
465,09:30:25.624,479.5,579.5,-10.5,193.0,-79.5
467,09:30:25.626,524.0,599.5,-8.5,201.5,-58.0
469,09:30:25.628,558.0,599.0,-6.5,194.0,-63.5
471,09:30:25.630,606.0,629.5,-5.0,205.5,-33.0
473,09:30:25.632,605.5,658.0,-4.5,222.5,16.0
475,09:30:25.634,609.0,676.0,-4.0,217.5,51.5
477,09:30:25.636,673.0,721.0,-2.5,221.5,90.5
479,09:30:25.638,854.5,745.0,-1.0,225.0,105.5
481,09:30:25.640,909.0,765.0,0.0,232.0,144.5
483,09:30:25.642,899.0,797.0,2.0,246.5,176.0
485,09:30:25.644,933.0,820.5,3.5,238.0,174.5
487,09:30:25.646,928.5,861.0,4.0,250.0,182.5
489,09:30:25.648,918.0,863.5,3.5,251.0,167.5
491,09:30:25.650,938.0,820.0,2.5,246.0,128.0
493,09:30:25.652,903.0,804.0,0.5,243.5,159.0
495,09:30:25.654,820.5,762.5,-0.5,240.0,145.5
497,09:30:25.656,640.0,747.5,-2.0,246.5,120.5
499,09:30:25.658,560.0,765.0,-3.5,245.0,107.0
501,09:30:25.660,621.5,757.5,-4.5,232.0,83.5
503,09:30:25.662,646.5,758.0,-5.0,203.5,79.0
505,09:30:25.664,626.0,760.5,-5.5,205.0,12.5
507,09:30:25.666,665.0,768.0,-5.5,214.5,-41.5
509,09:30:25.668,698.5,809.5,-5.0,201.0,-39.0
511,09:30:25.670,647.0,808.5,-4.5,171.5,-50.0
513,09:30:25.672,595.0,778.0,-4.5,138.5,-100.5
515,09:30:25.674,538.0,820.0,-4.5,154.5,-72.0
517,09:30:25.676,484.0,871.5,-4.0,143.0,-28.0
519,09:30:25.678,460.0,868.0,-3.5,157.0,6.5
521,09:30:25.680,474.5,790.0,-3.5,171.0,5.5
523,09:30:25.682,522.5,688.5,-3.0,165.5,0.5
525,09:30:25.684,565.5,604.5,-2.5,170.5,1.5
527,09:30:25.686,565.5,553.0,-1.5,176.5,34.0
529,09:30:25.688,546.0,638.0,-0.5,166.0,156.0
531,09:30:25.690,513.5,715.5,0.0,169.5,271.0
533,09:30:25.692,507.0,755.5,0.0,181.5,327.5
535,09:30:25.694,442.5,829.5,1.0,171.5,357.5
537,09:30:25.696,373.5,816.0,2.5,162.0,371.5
539,09:30:25.698,259.5,796.5,5.0,151.5,396.0
541,09:30:25.700,116.0,775.5,6.0,143.0,390.5
543,09:30:25.702,-66.5,705.0,6.0,145.5,387.0
545,09:30:25.704,-333.5,640.0,6.0,147.0,394.5
547,09:30:25.706,-645.5,515.5,6.5,132.5,374.0
549,09:30:25.708,-883.5,510.5,6.5,122.5,384.5
551,09:30:25.710,-1009.5,499.5,6.5,124.0,359.0
553,09:30:25.712,-976.0,424.5,6.5,126.0,327.5
555,09:30:25.714,-969.5,539.0,6.0,128.5,368.0
557,09:30:25.716,-1016.5,515.5,5.5,124.0,429.0
559,09:30:25.718,-1122.0,568.5,4.5,109.5,501.5
561,09:30:25.720,-1324.0,720.5,4.0,80.0,563.5
563,09:30:25.722,-1502.0,769.5,3.0,76.5,642.0
565,09:30:25.724,-1662.5,813.0,2.5,66.0,718.0
567,09:30:25.726,-1704.0,810.0,2.0,54.0,771.5
569,09:30:25.728,-1579.0,748.5,1.5,49.5,756.5
571,09:30:25.730,-1402.5,664.0,1.0,64.0,759.0
573,09:30:25.732,-1343.5,582.5,0.5,60.0,885.5
575,09:30:25.734,-1394.5,555.0,0.5,49.0,1007.5
577,09:30:25.736,-1490.5,623.5,0.5,42.5,1145.5
579,09:30:25.738,-1587.5,722.5,0.0,38.5,1313.0
581,09:30:25.740,-1731.5,640.0,0.5,40.0,1466.0
583,09:30:25.742,-1924.5,690.0,1.0,50.0,1638.0
585,09:30:25.744,-1957.5,799.5,1.0,67.0,1774.0
587,09:30:25.746,-1830.0,853.5,1.0,68.0,1939.0
589,09:30:25.748,-1697.5,858.5,2.0,60.0,2088.5
591,09:30:25.750,-1602.5,895.0,3.5,60.0,2209.0
593,09:30:25.752,-1671.0,914.5,5.5,49.5,2265.0
595,09:30:25.754,-1819.0,894.5,7.5,49.5,2280.0
597,09:30:25.756,-2011.5,825.0,9.5,19.5,2254.0
599,09:30:25.758,-2124.0,818.0,11.0,26.0,2271.0
601,09:30:25.760,-2189.5,788.0,11.5,9.5,2276.0
603,09:30:25.762,-2288.0,808.5,11.5,15.0,2329.0
605,09:30:25.764,-2419.5,872.0,13.0,23.5,2415.0
607,09:30:25.766,-2655.5,885.0,15.5,-8.0,2380.0
609,09:30:25.768,-2883.5,857.0,18.0,-4.0,2347.0
611,09:30:25.770,-3053.5,767.5,20.0,-57.0,2263.5
613,09:30:25.772,-3098.5,671.0,21.5,-87.5,2238.0
615,09:30:25.774,-3190.0,592.5,22.0,-111.5,2213.5
617,09:30:25.776,-3228.0,523.0,21.5,-112.0,2137.5
619,09:30:25.778,-3189.5,462.5,20.0,-121.0,2033.0
621,09:30:25.780,-3154.5,390.5,19.0,-160.5,1932.0
623,09:30:25.782,-3113.0,360.5,18.0,-173.0,1875.0
625,09:30:25.784,-3067.0,365.0,17.5,-194.5,1858.0
627,09:30:25.786,-3083.5,333.0,16.0,-187.5,1905.5
629,09:30:25.788,-3201.0,299.5,14.0,-194.0,1938.5
631,09:30:25.790,-3339.0,301.0,12.0,-207.0,1951.0
633,09:30:25.792,-3463.0,320.5,11.0,-228.5,1936.0
635,09:30:25.794,-3542.5,367.5,10.5,-229.5,1919.0
637,09:30:25.796,-3567.0,348.5,10.0,-228.5,1895.0
639,09:30:25.798,-3527.0,305.5,11.0,-228.5,1928.5
641,09:30:25.800,-3327.0,285.0,12.5,-227.0,1996.5
643,09:30:25.802,-3066.5,309.0,13.0,-225.0,2032.0
645,09:30:25.804,-2937.5,357.0,13.5,-212.0,2037.5
647,09:30:25.806,-2894.0,361.5,14.0,-227.5,2043.5
649,09:30:25.808,-2835.5,366.0,14.0,-220.0,2088.5
651,09:30:25.810,-2778.0,361.5,14.0,-177.5,2147.0
653,09:30:25.812,-2774.5,295.0,14.5,-174.0,2141.0
655,09:30:25.814,-2768.0,182.0,15.0,-166.0,2134.5
657,09:30:25.816,-2683.5,145.5,15.5,-173.0,2170.0
659,09:30:25.818,-2549.0,128.0,15.5,-203.0,2159.5
661,09:30:25.820,-2409.5,141.5,15.5,-195.0,2143.0
663,09:30:25.822,-2275.5,124.5,14.5,-196.5,2142.0
665,09:30:25.824,-2103.5,66.0,12.5,-199.5,2128.5
667,09:30:25.826,-1944.5,36.0,11.0,-205.5,2131.5
669,09:30:25.828,-1767.0,34.5,10.5,-230.5,2157.0
671,09:30:25.830,-1636.5,-37.0,10.0,-252.0,2166.5
673,09:30:25.832,-1515.0,-37.5,8.5,-243.0,2195.0
675,09:30:25.834,-1399.0,-35.0,7.0,-235.5,2243.5
677,09:30:25.836,-1294.0,-42.5,7.0,-230.0,2251.0
679,09:30:25.838,-1159.0,-55.0,7.5,-228.0,2238.0
681,09:30:25.840,-1023.5,-91.5,8.0,-251.0,2205.5
683,09:30:25.842,-893.5,-117.0,7.0,-268.5,2173.0
685,09:30:25.844,-751.0,-144.5,6.0,-252.0,2147.5
687,09:30:25.846,-615.5,-192.0,5.5,-261.5,2118.5
689,09:30:25.848,-515.0,-248.0,5.5,-256.5,2121.0
691,09:30:25.850,-473.5,-298.5,6.0,-269.0,2120.0
693,09:30:25.852,-377.0,-306.5,5.5,-277.0,2113.0
695,09:30:25.854,-294.0,-358.5,5.5,-286.0,2080.5
697,09:30:25.856,-255.5,-408.0,4.5,-273.5,2087.0
699,09:30:25.858,-135.5,-417.0,3.5,-253.0,2097.0
701,09:30:25.860,8.5,-435.5,3.5,-222.5,2076.0
703,09:30:25.862,88.0,-440.0,4.5,-233.0,1973.5
705,09:30:25.864,48.0,-467.0,6.5,-240.0,1862.5
707,09:30:25.866,-38.0,-483.0,7.5,-223.5,1784.0
709,09:30:25.868,47.0,-504.0,8.0,-204.5,1726.5
711,09:30:25.870,85.5,-544.5,9.5,-215.0,1639.0
713,09:30:25.872,69.0,-533.5,11.0,-221.5,1554.0
715,09:30:25.874,167.0,-504.0,12.5,-226.5,1478.0
717,09:30:25.876,305.0,-460.5,13.0,-212.0,1406.5
719,09:30:25.878,346.0,-439.5,12.0,-202.0,1323.5
721,09:30:25.880,326.0,-434.0,11.0,-193.5,1222.0
723,09:30:25.882,240.0,-465.0,10.5,-207.0,1093.5
725,09:30:25.884,206.5,-448.0,9.5,-190.0,1036.5
727,09:30:25.886,188.0,-428.0,8.5,-193.0,977.0
729,09:30:25.888,172.0,-423.0,7.5,-179.0,913.5
731,09:30:25.890,158.0,-404.0,7.0,-130.0,893.5
733,09:30:25.892,98.5,-422.5,7.0,-155.0,817.5
735,09:30:25.894,81.0,-414.0,6.0,-160.0,771.0
737,09:30:25.896,81.5,-397.0,5.5,-149.5,732.5
739,09:30:25.898,101.0,-364.5,6.0,-135.5,717.0
741,09:30:25.900,147.0,-350.0,6.5,-126.0,713.0
743,09:30:25.902,231.5,-340.0,7.5,-119.5,701.5
745,09:30:25.904,317.0,-331.0,8.5,-110.0,691.0
747,09:30:25.906,334.5,-363.5,8.0,-137.0,639.0
749,09:30:25.908,357.0,-376.5,7.0,-162.0,595.0
751,09:30:25.910,414.0,-348.0,6.0,-165.5,545.0
753,09:30:25.912,438.5,-341.5,5.0,-182.0,476.5
755,09:30:25.914,471.5,-347.0,4.5,-197.0,420.5
757,09:30:25.916,510.5,-366.0,4.5,-190.0,364.0
759,09:30:25.918,532.0,-366.5,4.5,-188.5,344.5
761,09:30:25.920,560.0,-337.5,5.0,-193.0,384.5
763,09:30:25.922,587.0,-335.5,5.5,-199.5,388.5
765,09:30:25.924,607.0,-311.0,5.0,-204.5,344.0
767,09:30:25.926,585.0,-302.0,4.0,-220.5,283.0
769,09:30:25.928,590.5,-272.0,2.5,-218.5,258.5
771,09:30:25.930,612.0,-200.0,1.5,-196.0,271.0
773,09:30:25.932,645.5,-105.0,2.5,-168.5,255.5
775,09:30:25.934,652.5,-58.5,4.0,-144.5,252.0
777,09:30:25.936,635.0,-55.0,6.0,-152.5,263.0
779,09:30:25.938,653.5,-52.0,7.0,-148.0,263.0
781,09:30:25.940,666.5,-65.5,8.5,-141.0,238.5
783,09:30:25.942,707.0,-37.0,9.5,-130.0,227.0
785,09:30:25.944,738.5,-18.0,11.0,-119.0,238.0
787,09:30:25.946,809.0,43.0,11.5,-94.5,286.0
789,09:30:25.948,842.0,77.0,12.0,-92.0,288.5
791,09:30:25.950,892.0,96.5,13.0,-81.0,273.0
793,09:30:25.952,933.5,111.5,14.0,-81.5,262.0
795,09:30:25.954,953.5,98.5,14.5,-91.0,248.0
797,09:30:25.956,965.0,67.0,14.5,-92.0,259.5
799,09:30:25.958,987.0,50.0,13.5,-88.0,294.0
801,09:30:25.960,1004.0,-10.0,12.5,-107.0,222.5
803,09:30:25.962,1004.5,-54.5,13.0,-120.0,137.0
805,09:30:25.964,988.5,-89.5,14.0,-123.0,102.5
807,09:30:25.966,1015.5,-177.0,15.0,-118.0,19.5
809,09:30:25.968,1010.0,-246.5,16.0,-119.0,-56.5
811,09:30:25.970,988.0,-262.0,16.0,-120.5,-84.5
813,09:30:25.972,964.5,-342.5,16.0,-130.0,-155.5
815,09:30:25.974,886.5,-338.0,16.0,-169.0,-119.0
817,09:30:25.976,812.0,-361.0,16.5,-167.5,-34.5
819,09:30:25.978,777.0,-380.0,17.5,-124.0,5.0
821,09:30:25.980,668.5,-244.0,19.0,-152.5,2.0
823,09:30:25.982,600.5,-157.5,20.0,-159.0,14.0
825,09:30:25.984,518.5,-82.0,21.0,-148.5,45.0
827,09:30:25.986,461.0,-53.0,21.0,-150.5,51.0
829,09:30:25.988,433.0,-93.0,20.0,-153.5,20.5
831,09:30:25.990,420.0,-141.5,19.0,-134.5,-66.0
833,09:30:25.992,433.0,-265.5,17.5,-137.5,-239.0
835,09:30:25.994,445.0,-349.0,16.5,-146.0,-320.5
837,09:30:25.996,505.5,-460.5,14.5,-132.5,-439.5
839,09:30:25.998,571.0,-467.5,12.5,-101.5,-507.0
841,09:30:26,652.0,-193.5,10.5,-84.0,-466.5
843,09:30:26.002,780.0,18.0,9.0,-32.0,-476.0
845,09:30:26.004,871.0,-22.0,8.0,8.5,-545.0
847,09:30:26.006,955.5,-6.5,7.5,60.5,-560.5
849,09:30:26.008,1013.5,5.0,6.5,94.5,-613.5
851,09:30:26.010,1140.5,115.0,5.0,173.0,-579.5
853,09:30:26.012,1225.0,236.5,3.5,230.5,-584.0
855,09:30:26.014,1244.5,299.5,1.5,283.5,-627.5
857,09:30:26.016,1257.0,279.5,-0.5,385.5,-631.5
859,09:30:26.018,1246.0,129.5,-2.0,515.5,-696.5
861,09:30:26.020,1163.0,-110.5,-3.5,662.0,-805.5
863,09:30:26.022,979.5,-275.5,-3.5,747.0,-938.5
865,09:30:26.024,680.5,-314.0,-3.5,728.0,-1065.5
867,09:30:26.026,387.5,-315.5,-3.0,605.0,-1219.5
869,09:30:26.028,200.0,-424.0,-2.5,429.5,-1346.0
871,09:30:26.030,21.0,-545.5,-1.5,244.5,-1514.0
873,09:30:26.032,-206.5,-669.0,0.0,56.5,-1713.0
875,09:30:26.034,-448.5,-842.5,0.5,-175.5,-1933.5
877,09:30:26.036,-588.0,-935.0,1.0,-437.0,-2068.0
879,09:30:26.038,-630.0,-974.5,1.0,-647.0,-2120.5
881,09:30:26.040,-642.5,-992.0,0.5,-808.0,-2186.5
883,09:30:26.042,-650.5,-1039.5,0.0,-930.0,-2279.5
885,09:30:26.044,-695.0,-1192.0,-1.5,-1017.5,-2428.0
887,09:30:26.046,-691.5,-1321.5,-2.0,-1070.5,-2539.0
889,09:30:26.048,-591.5,-1282.0,-2.0,-1071.5,-2469.5
891,09:30:26.050,-438.5,-1144.5,-2.5,-992.0,-2279.5
893,09:30:26.052,-234.5,-866.0,-3.0,-800.0,-2064.0
895,09:30:26.054,-114.0,-676.5,-1.5,-639.0,-1931.0
897,09:30:26.056,-53.5,-610.0,0.0,-551.5,-1861.0
899,09:30:26.058,10.5,-522.5,2.5,-475.0,-1775.5
901,09:30:26.060,90.0,-425.5,4.0,-416.5,-1664.5
903,09:30:26.062,119.0,-393.5,4.5,-365.5,-1544.5
905,09:30:26.064,173.0,-376.5,4.0,-306.5,-1387.0
907,09:30:26.066,202.0,-321.5,3.5,-255.5,-1252.5
909,09:30:26.068,210.0,-297.5,3.5,-209.5,-1114.5
911,09:30:26.070,207.0,-261.5,4.0,-166.5,-998.0
913,09:30:26.072,164.0,-255.5,3.5,-132.0,-947.5
915,09:30:26.074,131.0,-241.0,3.0,-91.0,-883.5
917,09:30:26.076,-0.5,-231.0,2.0,-122.5,-852.0
919,09:30:26.078,-114.0,-240.0,0.5,-153.5,-840.5
921,09:30:26.080,-179.5,-224.5,-1.0,-178.5,-814.0
923,09:30:26.082,-215.5,-245.0,-2.5,-174.5,-766.5
925,09:30:26.084,-246.0,-308.0,-3.0,-153.5,-721.5
927,09:30:26.086,-289.5,-356.0,-3.5,-140.0,-662.5
929,09:30:26.088,-353.5,-371.0,-4.5,-140.0,-643.5
931,09:30:26.090,-367.0,-328.0,-5.5,-94.0,-588.5
933,09:30:26.092,-396.0,-310.0,-7.0,-55.0,-525.0
935,09:30:26.094,-468.0,-332.0,-8.5,-59.0,-514.0
937,09:30:26.096,-521.5,-358.0,-8.0,-54.5,-497.0
939,09:30:26.098,-595.5,-391.0,-7.0,-71.0,-489.5
941,09:30:26.100,-634.0,-447.0,-6.0,-61.0,-470.0
943,09:30:26.102,-624.5,-512.5,-6.0,-54.5,-374.0
945,09:30:26.104,-631.0,-528.0,-5.0,-73.0,-316.0
947,09:30:26.106,-600.5,-535.0,-3.5,-49.0,-248.0
949,09:30:26.108,-556.0,-549.5,-2.0,-9.5,-163.0
951,09:30:26.110,-542.5,-580.5,-0.5,3.5,-117.0
953,09:30:26.112,-561.0,-615.0,0.0,6.5,-120.5
955,09:30:26.114,-557.5,-646.0,0.5,3.0,-102.5
957,09:30:26.116,-528.5,-663.5,0.0,4.5,-54.5
959,09:30:26.118,-508.5,-678.0,0.0,12.0,-28.0
961,09:30:26.120,-485.5,-672.5,0.0,20.5,11.0
963,09:30:26.122,-466.0,-699.5,0.5,3.5,57.5
965,09:30:26.124,-451.5,-699.0,0.5,-4.5,81.5
967,09:30:26.126,-414.0,-650.0,1.0,15.5,130.5
969,09:30:26.128,-361.0,-589.5,2.0,54.5,180.0
971,09:30:26.130,-368.5,-619.0,3.0,42.5,180.5
973,09:30:26.132,-362.0,-648.0,4.0,48.0,210.0
975,09:30:26.134,-334.5,-637.5,3.5,49.5,275.5
977,09:30:26.136,-341.0,-612.0,3.0,42.0,275.0
979,09:30:26.138,-339.5,-595.0,2.0,29.0,260.0
981,09:30:26.140,-325.0,-545.5,1.5,31.5,279.5
983,09:30:26.142,-327.5,-503.0,1.0,26.5,298.5
985,09:30:26.144,-348.5,-522.0,0.5,8.5,287.5
987,09:30:26.146,-309.0,-499.5,1.0,5.0,328.0
989,09:30:26.148,-230.5,-455.0,2.5,49.0,410.0
991,09:30:26.150,-203.0,-485.0,5.0,42.0,412.0
993,09:30:26.152,-195.0,-523.0,7.0,43.5,388.0
995,09:30:26.154,-168.5,-501.5,8.0,32.0,413.0
997,09:30:26.156,-112.0,-503.5,8.5,45.5,400.0
999,09:30:26.158,-79.0,-537.5,8.5,29.0,345.0
1001,09:30:26.160,-4.0,-448.5,8.0,39.5,381.0
1003,09:30:26.162,71.5,-425.5,8.0,69.0,463.0
1005,09:30:26.164,106.5,-565.0,7.0,54.5,386.0
1007,09:30:26.166,176.5,-604.5,5.5,62.5,316.5
1009,09:30:26.168,240.0,-568.5,4.0,85.5,370.5
1011,09:30:26.170,235.5,-610.0,2.5,87.5,386.5
1013,09:30:26.172,251.5,-647.0,1.5,106.5,343.0
1015,09:30:26.174,254.5,-499.5,1.0,114.5,410.0
1017,09:30:26.176,295.5,-308.5,1.5,121.5,454.5
1019,09:30:26.178,338.0,-266.5,1.5,124.0,407.0
1021,09:30:26.180,432.5,-276.0,2.0,147.0,386.0
1023,09:30:26.182,474.0,-309.5,2.0,153.0,352.5
1025,09:30:26.184,492.0,-291.5,1.5,143.0,334.0
1027,09:30:26.186,523.5,-220.5,0.0,167.5,342.5
1029,09:30:26.188,535.0,-203.5,-0.5,187.0,293.5
1031,09:30:26.190,535.5,-265.5,-1.5,202.5,184.5
1033,09:30:26.192,590.0,-369.5,-2.5,227.5,53.0
1035,09:30:26.194,645.0,-478.0,-3.5,236.5,-52.0
1037,09:30:26.196,698.0,-653.5,-4.0,230.5,-130.0
1039,09:30:26.198,739.5,-717.0,-4.5,220.5,-142.5
1041,09:30:26.200,794.0,-612.5,-4.5,226.0,-106.5
1043,09:30:26.202,906.5,-348.0,-4.5,291.0,-38.5
1045,09:30:26.204,966.0,-301.5,-4.0,315.0,-27.0
1047,09:30:26.206,1026.0,-257.0,-3.0,311.0,37.0
1049,09:30:26.208,1146.0,-218.0,-1.5,324.0,85.0
1051,09:30:26.210,1210.0,-178.0,0.0,314.5,108.0
1053,09:30:26.212,1290.5,-92.0,2.0,313.5,152.5
1055,09:30:26.214,1375.0,-54.5,3.0,325.5,140.5
1057,09:30:26.216,1464.0,-24.0,4.5,347.0,140.0
1059,09:30:26.218,1548.5,-56.0,5.0,377.5,116.0
1061,09:30:26.220,1613.0,-78.5,6.0,388.5,51.0
1063,09:30:26.222,1668.5,-152.5,7.5,384.5,-26.0
1065,09:30:26.224,1761.5,-174.0,8.5,394.0,-13.0
1067,09:30:26.226,1868.5,-38.0,10.0,392.5,74.0
1069,09:30:26.228,1918.0,124.0,10.5,392.0,175.0
1071,09:30:26.230,1958.0,216.5,9.5,395.5,303.0
1073,09:30:26.232,2144.0,611.5,8.0,403.5,306.0
1075,09:30:26.234,2230.0,615.0,7.0,393.5,323.5
1077,09:30:26.236,2343.0,663.0,6.5,422.0,414.5
1079,09:30:26.238,2423.5,703.5,6.5,430.0,501.5
1081,09:30:26.240,2466.0,755.5,7.5,430.5,595.5
1083,09:30:26.242,2516.0,828.0,8.0,422.0,672.0
1085,09:30:26.244,2589.0,872.0,8.0,446.0,731.5
1087,09:30:26.246,2633.0,878.0,8.5,418.5,761.0
1089,09:30:26.248,2712.5,903.5,9.0,426.0,838.0
1091,09:30:26.250,2794.0,898.5,9.0,412.5,970.0
1093,09:30:26.252,2885.5,910.5,9.0,397.5,1139.0
1095,09:30:26.254,3003.5,990.5,8.5,431.0,1331.5
1097,09:30:26.256,3064.5,1018.0,7.0,437.0,1506.5
1099,09:30:26.258,3132.0,1053.0,5.5,442.0,1657.0
1101,09:30:26.260,3195.5,1083.5,4.0,436.5,1792.5
1103,09:30:26.262,3248.5,1067.5,3.5,443.5,1919.5
1105,09:30:26.264,3274.5,1035.5,3.0,457.0,2068.0
1107,09:30:26.266,3281.0,1035.0,3.5,443.5,2155.5
1109,09:30:26.268,3278.0,1004.0,4.5,425.5,2207.0
1111,09:30:26.270,3245.0,935.5,5.5,394.5,2275.0
1113,09:30:26.272,3204.5,886.5,7.0,350.0,2352.0
1115,09:30:26.274,3174.0,841.0,7.0,331.5,2440.5
1117,09:30:26.276,3135.5,779.5,6.5,310.5,2514.5
1119,09:30:26.278,3102.0,736.0,5.5,287.5,2532.5
1121,09:30:26.280,3055.0,681.0,4.5,278.0,2519.0
1123,09:30:26.282,2979.0,622.5,3.0,260.5,2501.0
1125,09:30:26.284,2916.5,538.0,1.5,249.0,2470.0
1127,09:30:26.286,2854.5,444.5,0.0,234.5,2395.0
1129,09:30:26.288,2777.0,435.0,-2.0,204.5,2288.0
1131,09:30:26.290,2701.0,365.5,-3.5,193.5,2206.0
1133,09:30:26.292,2629.5,246.0,-4.5,183.0,2152.5
1135,09:30:26.294,2555.0,170.5,-4.5,157.0,2098.0
1137,09:30:26.296,2451.0,92.0,-3.5,123.5,2022.0
1139,09:30:26.298,2355.0,13.5,-2.5,96.0,1956.0
1141,09:30:26.300,2285.0,-20.0,-0.5,95.5,1900.0
1143,09:30:26.302,2185.5,-84.5,1.0,82.0,1804.0
1145,09:30:26.304,2046.0,-144.5,2.5,36.0,1671.0
1147,09:30:26.306,1920.5,-225.5,4.0,-2.0,1581.0
1149,09:30:26.308,1841.5,-302.0,5.5,-0.5,1507.5
1151,09:30:26.310,1749.0,-384.0,6.5,-17.5,1419.5
1153,09:30:26.312,1655.0,-452.0,6.5,-35.5,1324.0
1155,09:30:26.314,1551.0,-500.5,7.0,-59.0,1201.5
1157,09:30:26.316,1453.0,-536.0,7.5,-63.0,1119.0
1159,09:30:26.318,1375.0,-508.5,7.0,-72.0,1047.5
1161,09:30:26.320,1291.5,-504.5,7.0,-73.0,977.0
1163,09:30:26.322,1204.5,-569.0,7.5,-100.0,874.5
1165,09:30:26.324,1118.5,-585.5,8.5,-99.5,789.0
1167,09:30:26.326,1035.0,-627.0,9.0,-125.0,700.5
1169,09:30:26.328,961.5,-683.0,9.0,-137.5,632.5
1171,09:30:26.330,890.0,-708.0,9.5,-146.5,561.5
1173,09:30:26.332,805.0,-748.5,10.5,-154.5,479.0
1175,09:30:26.334,722.5,-771.5,11.0,-143.0,433.0
1177,09:30:26.336,606.0,-826.0,11.5,-182.5,367.5
1179,09:30:26.338,532.0,-822.5,12.0,-164.5,361.0
1181,09:30:26.340,403.0,-873.0,12.5,-183.0,308.0
1183,09:30:26.342,295.5,-880.0,13.0,-178.0,251.5
1185,09:30:26.344,196.0,-872.5,12.0,-187.0,209.0
1187,09:30:26.346,66.5,-898.0,11.5,-195.0,154.5
1189,09:30:26.348,-72.0,-932.0,9.5,-220.5,49.5
1191,09:30:26.350,-184.5,-918.0,7.5,-214.0,-14.5
1193,09:30:26.352,-286.0,-911.5,6.5,-220.0,-16.5
1195,09:30:26.354,-412.0,-935.0,7.0,-241.0,-75.5
1197,09:30:26.356,-523.0,-932.0,7.0,-245.5,-200.0
1199,09:30:26.358,-652.0,-961.0,7.5,-273.5,-282.0
1201,09:30:26.360,-770.5,-951.5,6.5,-292.5,-331.5
1203,09:30:26.362,-879.0,-919.5,4.5,-281.0,-388.5
1205,09:30:26.364,-944.0,-880.0,2.0,-265.5,-410.5
1207,09:30:26.366,-1029.0,-906.5,0.0,-304.0,-473.0
1209,09:30:26.368,-1064.0,-841.5,-2.0,-274.0,-499.0
1211,09:30:26.370,-1120.0,-772.5,-3.0,-279.0,-577.5
1213,09:30:26.372,-1146.5,-676.5,-3.5,-219.0,-589.5
1215,09:30:26.374,-1202.5,-611.5,-1.5,-222.5,-605.5
1217,09:30:26.376,-1230.5,-546.0,0.0,-211.5,-570.5
1219,09:30:26.378,-1224.0,-460.0,2.5,-182.0,-493.5
1221,09:30:26.380,-1254.0,-391.0,4.5,-200.0,-492.5
1223,09:30:26.382,-1265.5,-268.0,4.5,-208.0,-560.5
1225,09:30:26.384,-1247.0,-153.5,3.0,-138.5,-589.5
1227,09:30:26.386,-1242.0,-85.0,2.5,-128.5,-620.5
1229,09:30:26.388,-1255.0,-44.5,3.0,-132.0,-637.5
1231,09:30:26.390,-1266.5,10.0,3.5,-130.5,-666.0
1233,09:30:26.392,-1264.5,46.5,3.5,-119.0,-715.0
1235,09:30:26.394,-1230.5,65.5,3.0,-91.5,-741.5
1237,09:30:26.396,-1199.5,99.5,2.5,-76.0,-724.0
1239,09:30:26.398,-1175.5,127.0,2.5,-66.0,-684.5
1241,09:30:26.400,-1136.0,153.5,3.5,-39.5,-697.0
1243,09:30:26.402,-1086.0,166.5,5.0,-16.5,-688.5
1245,09:30:26.404,-1049.5,154.0,7.5,-10.0,-565.0
1247,09:30:26.406,-1028.5,137.5,10.5,-7.5,-493.0
1249,09:30:26.408,-1010.0,171.5,13.0,-2.0,-497.5
1251,09:30:26.410,-967.5,212.0,14.0,14.0,-487.0
1253,09:30:26.412,-929.5,213.0,14.5,28.0,-481.0
1255,09:30:26.414,-889.0,174.5,15.0,28.0,-512.0
1257,09:30:26.416,-849.5,210.0,15.0,32.5,-511.5
1259,09:30:26.418,-791.5,219.5,14.0,42.5,-499.5
1261,09:30:26.420,-736.0,181.0,12.5,30.0,-508.5
1263,09:30:26.422,-710.0,117.5,11.0,26.5,-531.0
1265,09:30:26.424,-676.0,68.5,9.5,50.5,-516.0
1267,09:30:26.426,-621.5,72.5,8.5,79.0,-446.0
1269,09:30:26.428,-577.0,36.0,9.0,72.5,-431.0
1271,09:30:26.430,-517.0,7.0,10.0,84.5,-395.0
1273,09:30:26.432,-513.5,12.5,10.0,62.0,-373.0
1275,09:30:26.434,-501.5,56.0,10.0,59.0,-357.0
1277,09:30:26.436,-496.5,87.5,8.5,71.0,-331.5
1279,09:30:26.438,-482.0,102.0,8.0,79.0,-290.5
1281,09:30:26.440,-465.0,131.5,8.0,80.0,-255.0
1283,09:30:26.442,-460.5,173.5,8.0,81.5,-222.0
1285,09:30:26.444,-451.0,204.5,8.5,73.0,-179.0
1287,09:30:26.446,-469.0,212.0,8.0,54.5,-159.5
1289,09:30:26.448,-437.5,232.5,7.0,69.0,-86.5
1291,09:30:26.450,-434.5,235.5,6.0,66.5,-68.0
1293,09:30:26.452,-456.5,223.5,4.5,60.5,32.0
1295,09:30:26.454,-454.5,216.0,2.5,40.0,87.5
1297,09:30:26.456,-435.5,221.0,0.5,57.0,147.0
1299,09:30:26.458,-448.5,224.5,-0.5,54.0,168.5
1301,09:30:26.460,-436.0,238.5,-1.5,50.0,162.0
1303,09:30:26.462,-444.0,234.5,-2.0,43.0,170.0
1305,09:30:26.464,-445.0,270.5,-2.0,49.0,225.0
1307,09:30:26.466,-505.5,208.0,-1.5,42.0,230.5
1309,09:30:26.468,-490.5,229.0,-1.0,-1.5,257.0
1311,09:30:26.470,-478.5,245.5,-0.5,6.5,286.5
1313,09:30:26.472,-469.0,251.0,-1.5,12.5,304.0
1315,09:30:26.474,-430.0,334.5,-2.5,14.5,271.5
1317,09:30:26.476,-418.0,386.5,-3.0,12.5,232.5
1319,09:30:26.478,-423.5,389.5,-3.0,4.0,250.5
1321,09:30:26.480,-426.0,448.0,-2.5,-3.0,263.0
1323,09:30:26.482,-425.5,491.5,-1.5,5.5,247.0
1325,09:30:26.484,-435.5,521.5,0.0,3.0,198.5
1327,09:30:26.486,-431.5,562.5,1.0,16.0,170.0
1329,09:30:26.488,-452.0,581.0,2.5,13.0,126.5
1331,09:30:26.490,-468.0,609.0,3.5,-2.0,93.5
1333,09:30:26.492,-487.5,611.0,4.0,-15.5,65.0
1335,09:30:26.494,-503.0,585.5,3.5,-33.5,31.5
1337,09:30:26.496,-482.5,598.5,2.0,2.5,38.5
1339,09:30:26.498,-513.5,583.0,1.5,-5.5,-14.5
1341,09:30:26.500,-541.5,585.5,2.0,-37.0,-77.5
1343,09:30:26.502,-526.5,631.0,4.0,-35.5,-105.0
1345,09:30:26.504,-511.5,646.5,6.5,-51.0,-171.0
1347,09:30:26.506,-490.0,629.5,8.5,-47.5,-233.5
1349,09:30:26.508,-499.0,580.0,11.5,-50.0,-301.0
1351,09:30:26.510,-543.5,514.5,14.0,-63.0,-345.5
1353,09:30:26.512,-573.5,467.5,17.0,-62.5,-375.5
1355,09:30:26.514,-597.5,406.5,19.5,-53.5,-384.0
1357,09:30:26.516,-629.0,306.0,20.0,-68.5,-395.5
1359,09:30:26.518,-644.5,185.5,19.5,-79.0,-397.0
1361,09:30:26.520,-638.5,90.5,17.5,-78.5,-395.0
1363,09:30:26.522,-630.5,26.5,14.5,-77.0,-374.0
1365,09:30:26.524,-656.5,-40.5,11.0,-86.5,-361.0
1367,09:30:26.526,-680.0,-92.0,8.0,-81.5,-344.5
1369,09:30:26.528,-687.5,-159.5,6.5,-69.5,-317.0
1371,09:30:26.530,-731.5,-256.5,6.0,-70.0,-308.0
1373,09:30:26.532,-785.5,-332.0,7.0,-79.0,-295.0
1375,09:30:26.534,-852.0,-394.0,8.0,-115.5,-300.0
1377,09:30:26.536,-878.0,-461.5,8.5,-115.5,-285.5
1379,09:30:26.538,-899.5,-519.0,9.0,-84.5,-229.5
1381,09:30:26.540,-914.5,-557.0,9.0,-85.5,-196.0
1383,09:30:26.542,-968.5,-687.0,9.0,-95.0,-175.0
1385,09:30:26.544,-935.0,-735.0,7.5,-67.5,-60.0
1387,09:30:26.546,-953.5,-824.0,6.5,-69.0,51.0
1389,09:30:26.548,-997.5,-916.0,6.0,-93.0,111.0
1391,09:30:26.550,-989.5,-956.0,5.5,-59.0,161.5
1393,09:30:26.552,-985.5,-982.5,6.0,-42.0,223.5
1395,09:30:26.554,-966.0,-1025.5,7.0,-36.5,343.5
1397,09:30:26.556,-938.0,-1082.0,7.0,-15.0,458.0
1399,09:30:26.558,-898.5,-1075.0,7.0,41.0,581.5
1401,09:30:26.560,-901.5,-1098.0,8.5,69.5,652.0
1403,09:30:26.562,-904.0,-1031.0,10.0,92.0,651.0
1405,09:30:26.564,-878.0,-921.0,11.0,128.5,664.5
1407,09:30:26.566,-838.5,-874.5,12.0,181.0,737.0
1409,09:30:26.568,-787.0,-836.0,11.5,242.5,794.5
1411,09:30:26.570,-727.0,-768.5,10.0,341.0,835.0
1413,09:30:26.572,-686.5,-737.5,9.0,482.0,859.0
1415,09:30:26.574,-668.0,-713.5,8.5,610.5,865.0
1417,09:30:26.576,-810.0,-820.0,8.0,642.5,707.5
1419,09:30:26.578,-1086.0,-1057.5,8.0,599.5,403.0
1421,09:30:26.580,-1207.5,-1192.5,8.5,461.0,242.0
1423,09:30:26.582,-1288.0,-1284.5,9.5,247.5,141.0
1425,09:30:26.584,-1443.5,-1398.5,9.0,62.0,16.5
1427,09:30:26.586,-1606.5,-1498.0,7.5,-85.0,-161.5
1429,09:30:26.588,-1771.5,-1626.5,5.0,-272.0,-364.5
1431,09:30:26.590,-1833.5,-1667.0,3.0,-529.0,-448.5
1433,09:30:26.592,-1842.0,-1660.0,1.5,-712.0,-512.5
1435,09:30:26.594,-1790.0,-1583.5,2.0,-831.5,-527.5
1437,09:30:26.596,-1806.0,-1569.0,3.5,-953.5,-621.0
1439,09:30:26.598,-1858.5,-1580.5,6.0,-983.5,-720.0
1441,09:30:26.600,-1872.0,-1559.5,8.5,-1029.0,-782.5
1443,09:30:26.602,-1823.5,-1452.5,11.5,-1002.0,-752.0
1445,09:30:26.604,-1705.0,-1307.0,14.0,-863.0,-628.5
1447,09:30:26.606,-1592.0,-1181.5,15.5,-684.5,-523.5
1449,09:30:26.608,-1559.5,-1086.5,16.0,-538.0,-496.0
1451,09:30:26.610,-1530.0,-1003.0,16.5,-439.0,-438.0
1453,09:30:26.612,-1485.0,-921.5,16.5,-406.0,-417.0
1455,09:30:26.614,-1398.0,-807.5,15.5,-330.5,-363.5
1457,09:30:26.616,-1332.0,-693.5,13.5,-266.0,-321.0
1459,09:30:26.618,-1269.0,-577.0,12.0,-200.5,-257.0
1461,09:30:26.620,-1206.5,-456.5,10.5,-150.0,-213.5
1463,09:30:26.622,-1150.0,-342.0,10.0,-79.0,-168.5
1465,09:30:26.624,-1138.5,-315.0,9.5,-52.0,-167.5
1467,09:30:26.626,-1148.0,-333.5,10.0,-51.0,-217.5
1469,09:30:26.628,-1173.0,-305.0,10.0,-57.5,-274.5
1471,09:30:26.630,-1213.0,-260.5,10.5,-62.0,-346.5
1473,09:30:26.632,-1254.0,-245.5,10.5,-72.5,-426.5
1475,09:30:26.634,-1287.5,-226.5,10.5,-97.0,-491.0
1477,09:30:26.636,-1280.0,-175.0,11.0,-110.0,-501.0
1479,09:30:26.638,-1264.0,-113.0,11.0,-112.5,-489.5
1481,09:30:26.640,-1249.5,-76.5,11.0,-63.0,-473.0
1483,09:30:26.642,-1232.0,-67.0,10.5,-10.0,-502.5
1485,09:30:26.644,-1180.0,0.5,9.5,2.5,-556.5
1487,09:30:26.646,-1179.5,28.0,8.5,-4.5,-570.0
1489,09:30:26.648,-1216.0,33.5,7.5,-17.0,-583.0
1491,09:30:26.650,-1223.5,52.5,7.0,-11.5,-614.0
1493,09:30:26.652,-1242.0,91.0,7.5,-34.0,-681.0
1495,09:30:26.654,-1225.0,118.5,9.0,-56.0,-741.5
1497,09:30:26.656,-1208.5,130.0,10.5,-64.0,-771.5
1499,09:30:26.658,-1212.0,163.5,11.5,-63.0,-782.0
1501,09:30:26.660,-1174.0,218.5,12.0,-34.5,-774.5
1503,09:30:26.662,-1203.0,226.5,13.5,-41.0,-789.5
1505,09:30:26.664,-1204.5,230.5,14.5,-39.0,-817.0
1507,09:30:26.666,-1140.0,229.0,15.5,-41.0,-874.0
1509,09:30:26.668,-1120.5,183.0,15.5,-61.5,-953.0
1511,09:30:26.670,-1152.0,162.0,16.0,-63.0,-1018.5
1513,09:30:26.672,-1186.5,137.0,16.5,-74.0,-1068.5
1515,09:30:26.674,-1183.5,99.5,16.0,-79.5,-1085.5
1517,09:30:26.676,-1171.5,75.5,15.0,-91.5,-1122.0
1519,09:30:26.678,-1116.5,84.0,13.5,-140.5,-1185.5
1521,09:30:26.680,-1007.0,103.5,12.5,-171.0,-1238.5
1523,09:30:26.682,-936.5,65.0,12.0,-133.5,-1256.5
1525,09:30:26.684,-911.5,29.5,11.5,-139.0,-1267.5
1527,09:30:26.686,-891.0,-6.0,11.5,-179.0,-1307.5
1529,09:30:26.688,-833.0,-22.5,12.0,-193.5,-1357.5
1531,09:30:26.690,-813.5,-25.5,12.0,-179.5,-1433.5
1533,09:30:26.692,-777.0,-44.5,12.5,-172.5,-1504.5
1535,09:30:26.694,-682.0,-73.0,13.0,-185.0,-1478.0
1537,09:30:26.696,-718.5,-119.0,13.5,-265.0,-1466.0
1539,09:30:26.698,-726.0,-81.0,14.5,-334.0,-1453.5
1541,09:30:26.700,-712.0,-32.5,14.5,-345.5,-1418.5
1543,09:30:26.702,-765.0,-75.5,13.5,-349.5,-1478.0
1545,09:30:26.704,-801.5,-128.5,12.0,-336.0,-1505.5
1547,09:30:26.706,-828.5,-176.5,11.0,-349.0,-1513.5
1549,09:30:26.708,-859.5,-241.0,10.5,-387.0,-1525.0
1551,09:30:26.710,-895.5,-268.0,10.0,-448.5,-1486.5
1553,09:30:26.712,-898.5,-278.0,9.5,-481.5,-1405.5
1555,09:30:26.714,-900.5,-291.5,8.5,-508.5,-1388.5
1557,09:30:26.716,-884.5,-315.5,7.5,-490.5,-1408.5
1559,09:30:26.718,-885.5,-271.0,6.5,-470.0,-1450.0
1561,09:30:26.720,-918.5,-178.5,6.0,-452.5,-1411.5
1563,09:30:26.722,-999.5,-186.0,6.0,-501.5,-1404.5
1565,09:30:26.724,-963.5,-201.5,5.5,-524.0,-1352.0
1567,09:30:26.726,-960.5,-275.5,6.0,-595.0,-1354.5
1569,09:30:26.728,-983.5,-207.5,7.5,-703.0,-1293.5
1571,09:30:26.730,-1044.0,-148.5,9.0,-883.5,-1235.5
1573,09:30:26.732,-1111.0,-237.5,10.0,-806.5,-1285.0
1575,09:30:26.734,-1146.0,-241.0,10.5,-753.0,-1257.0
1577,09:30:26.736,-1218.5,-230.0,12.0,-783.0,-1245.0
1579,09:30:26.738,-1338.0,-237.5,13.5,-836.0,-1184.0
1581,09:30:26.740,-1400.0,-221.5,14.0,-937.5,-1058.5
1583,09:30:26.742,-1461.0,-243.5,14.0,-1030.5,-951.5
1585,09:30:26.744,-1491.5,-300.0,13.5,-1078.0,-860.0
1587,09:30:26.746,-1485.5,-219.0,13.0,-1185.5,-780.5
1589,09:30:26.748,-1536.5,-93.5,12.0,-1258.0,-725.5
1591,09:30:26.750,-1594.0,-77.5,11.0,-1265.5,-712.0
1593,09:30:26.752,-1570.5,-70.5,9.5,-1244.5,-633.0
1595,09:30:26.754,-1504.0,-56.5,9.0,-1286.5,-580.0
1597,09:30:26.756,-1480.5,10.5,8.5,-1364.5,-601.0
1599,09:30:26.758,-1492.5,87.5,8.0,-1374.5,-583.5
1601,09:30:26.760,-1501.0,99.0,8.5,-1421.5,-624.0
1603,09:30:26.762,-1520.0,139.0,9.5,-1421.5,-710.0
1605,09:30:26.764,-1452.5,183.5,10.0,-1294.5,-786.0
1607,09:30:26.766,-1457.0,177.0,11.0,-1193.0,-882.0
1609,09:30:26.768,-1595.0,123.5,12.5,-1178.5,-945.5
1611,09:30:26.770,-1668.0,236.5,12.5,-1192.0,-928.5
1613,09:30:26.772,-1624.5,394.0,12.5,-1254.0,-882.0
1615,09:30:26.774,-1592.0,462.5,13.0,-1306.0,-863.5
1617,09:30:26.776,-1661.0,431.5,13.0,-1327.0,-875.5
1619,09:30:26.778,-1712.0,444.0,13.5,-1326.5,-883.0
1621,09:30:26.780,-1732.5,457.5,14.0,-1337.5,-886.5
1623,09:30:26.782,-1712.5,508.0,14.0,-1336.0,-888.5
1625,09:30:26.784,-1707.0,579.5,13.0,-1355.0,-921.0
1627,09:30:26.786,-1680.0,658.5,12.0,-1402.5,-950.5
1629,09:30:26.788,-1712.0,708.0,11.0,-1417.0,-1002.5
1631,09:30:26.790,-1790.0,717.0,11.0,-1448.5,-1088.5
1633,09:30:26.792,-1785.5,755.0,12.0,-1494.5,-1171.5
1635,09:30:26.794,-1742.0,780.0,13.5,-1541.0,-1198.0
1637,09:30:26.796,-1734.5,780.5,14.0,-1599.5,-1198.0
1639,09:30:26.798,-1661.5,807.5,14.0,-1598.0,-1182.5
1641,09:30:26.800,-1618.0,839.5,14.5,-1565.5,-1193.5
1643,09:30:26.802,-1620.0,838.5,15.0,-1559.5,-1267.0
1645,09:30:26.804,-1624.5,847.5,15.0,-1523.0,-1390.0
1647,09:30:26.806,-1626.5,913.5,16.0,-1474.5,-1575.5
1649,09:30:26.808,-1640.5,1181.5,17.0,-1484.0,-1612.0
1651,09:30:26.810,-1602.0,1387.0,18.5,-1483.0,-1560.0
1653,09:30:26.812,-1510.5,1417.0,19.5,-1446.0,-1582.0
1655,09:30:26.814,-1593.0,1465.5,20.5,-1443.0,-1680.5
1657,09:30:26.816,-1779.5,1469.5,20.5,-1497.5,-1742.0
1659,09:30:26.818,-1854.0,1467.5,21.0,-1509.5,-1745.0
1661,09:30:26.820,-1936.5,1456.5,21.5,-1535.0,-1690.0
1663,09:30:26.822,-1869.5,1463.5,22.0,-1577.0,-1581.0
1665,09:30:26.824,-1779.0,1498.5,22.0,-1601.0,-1467.5
1667,09:30:26.826,-1927.0,1520.0,22.0,-1680.0,-1359.0
1669,09:30:26.828,-2104.5,1464.5,21.5,-1744.5,-1219.0
1671,09:30:26.830,-2188.5,1553.5,21.0,-1792.0,-1207.0
1673,09:30:26.832,-2168.5,1570.0,20.5,-1786.5,-1161.5
1675,09:30:26.834,-2036.5,1607.5,20.0,-1724.0,-1088.0
1677,09:30:26.836,-2103.5,1655.5,20.0,-1699.0,-1053.5
1679,09:30:26.838,-2281.0,1756.5,20.5,-1720.5,-1095.0
1681,09:30:26.840,-2381.0,1901.0,21.0,-1733.5,-1116.0
1683,09:30:26.842,-2422.0,1976.0,21.0,-1723.5,-1126.0
1685,09:30:26.844,-2440.5,1942.0,21.5,-1719.0,-1197.5
1687,09:30:26.846,-2449.0,1987.0,21.0,-1700.5,-1281.0
1689,09:30:26.848,-2418.0,2068.5,20.5,-1698.0,-1390.5
1691,09:30:26.850,-2418.5,2081.5,20.0,-1658.0,-1473.0
1693,09:30:26.852,-2441.0,2034.5,19.5,-1588.0,-1530.0
1695,09:30:26.854,-2494.5,2023.0,18.5,-1562.0,-1563.5
1697,09:30:26.856,-2523.5,2007.0,17.5,-1587.5,-1586.5
1699,09:30:26.858,-2546.0,2025.5,16.0,-1609.5,-1649.5
1701,09:30:26.860,-2578.5,2020.0,14.5,-1601.0,-1722.0
1703,09:30:26.862,-2582.0,1992.5,13.5,-1559.5,-1773.0
1705,09:30:26.864,-2577.5,2011.0,13.5,-1602.0,-1802.0
1707,09:30:26.866,-2305.5,2070.5,13.0,-1607.5,-1711.5
1709,09:30:26.868,-1898.0,2087.0,12.5,-1655.0,-1578.5
1711,09:30:26.870,-1723.0,2051.0,12.0,-1687.5,-1483.0
1713,09:30:26.872,-1857.5,2031.0,12.5,-1656.5,-1454.5
1715,09:30:26.874,-1966.0,1996.5,13.5,-1670.5,-1456.5
1717,09:30:26.876,-1847.0,1949.5,14.5,-1659.5,-1450.5
1719,09:30:26.878,-1707.0,1899.5,15.0,-1569.0,-1386.5
1721,09:30:26.880,-1767.0,1850.0,15.5,-1503.0,-1336.5
1723,09:30:26.882,-1939.0,1828.5,16.0,-1487.0,-1289.0
1725,09:30:26.884,-2144.0,1836.5,16.0,-1522.5,-1221.5
1727,09:30:26.886,-2383.5,1802.5,16.5,-1548.0,-1165.0
1729,09:30:26.888,-2587.5,1746.5,16.0,-1486.0,-1070.5
1731,09:30:26.890,-2681.0,1768.0,15.0,-1420.5,-963.0
1733,09:30:26.892,-2678.0,1744.0,13.5,-1422.0,-959.5
1735,09:30:26.894,-2393.0,1738.0,12.5,-1415.5,-1004.5
1737,09:30:26.896,-2024.5,1791.5,11.5,-1498.5,-1040.5
1739,09:30:26.898,-1838.5,1953.0,11.5,-1788.0,-964.5
1741,09:30:26.900,-1791.5,2060.0,10.5,-1923.0,-883.0
1743,09:30:26.902,-1896.5,2002.5,9.5,-1757.0,-826.0
1745,09:30:26.904,-2070.5,1916.5,10.0,-1645.0,-683.5
1747,09:30:26.906,-2132.5,1944.5,11.0,-1687.0,-572.0
1749,09:30:26.908,-2128.5,1832.0,12.5,-1746.0,-541.0
1751,09:30:26.910,-2174.0,1699.0,13.5,-1739.5,-554.0
1753,09:30:26.912,-2314.5,1671.5,14.5,-1669.5,-573.0
1755,09:30:26.914,-2496.0,1628.0,15.0,-1632.5,-585.0
1757,09:30:26.916,-2648.5,1636.5,14.5,-1692.5,-547.5
1759,09:30:26.918,-2751.5,1566.0,14.0,-1590.5,-609.0
1761,09:30:26.920,-2817.5,1493.5,13.0,-1533.5,-660.0
1763,09:30:26.922,-2834.5,1613.5,11.5,-1558.0,-734.0
1765,09:30:26.924,-2781.5,1629.0,10.5,-1581.0,-799.0
1767,09:30:26.926,-2736.5,1564.5,9.5,-1571.0,-770.5
1769,09:30:26.928,-2603.0,1535.5,8.5,-1609.0,-693.0
1771,09:30:26.930,-2316.5,1557.5,7.0,-1528.5,-711.0
1773,09:30:26.932,-2203.5,1564.5,6.0,-1424.0,-756.0
1775,09:30:26.934,-2248.0,1595.0,5.5,-1277.0,-798.5
1777,09:30:26.936,-2330.0,1726.0,7.0,-1156.0,-878.5
1779,09:30:26.938,-2323.5,1826.5,8.5,-1030.0,-895.0
1781,09:30:26.940,-2261.0,1836.0,10.0,-965.5,-969.5
1783,09:30:26.942,-2132.0,1894.5,11.0,-876.5,-1078.5
1785,09:30:26.944,-2003.0,1915.5,11.0,-721.5,-1174.0
1787,09:30:26.946,-1984.0,2015.0,10.5,-600.5,-1230.5
1789,09:30:26.948,-2125.0,2366.0,10.0,-499.5,-1332.0
1791,09:30:26.950,-2224.5,2751.5,10.5,-380.5,-1445.0
1793,09:30:26.952,-2267.5,3010.0,11.0,-217.5,-1478.0
1795,09:30:26.954,-2269.5,3159.0,11.0,-87.0,-1585.5
1797,09:30:26.956,-2157.5,3175.5,10.5,28.5,-1675.0
1799,09:30:26.958,-1956.5,3210.0,10.0,135.5,-1731.5
1801,09:30:26.960,-1784.5,3266.5,10.5,223.5,-1824.0
1803,09:30:26.962,-1701.5,3323.0,12.0,289.5,-2068.5
1805,09:30:26.964,-1691.5,3352.5,13.0,384.5,-2410.5
1807,09:30:26.966,-1660.0,3345.5,14.0,505.0,-2627.0
1809,09:30:26.968,-1718.0,3305.5,14.5,537.5,-2820.0
1811,09:30:26.970,-1862.5,3242.5,14.5,543.5,-2951.5
1813,09:30:26.972,-2082.5,3181.0,14.5,686.5,-2969.0
1815,09:30:26.974,-2326.5,3144.5,14.5,696.5,-2983.5
1817,09:30:26.976,-2569.5,3137.0,15.5,675.5,-3048.5
1819,09:30:26.978,-2659.5,3162.5,16.5,652.5,-3075.0
1821,09:30:26.980,-2674.0,3203.5,18.5,711.5,-3015.5
1823,09:30:26.982,-2643.0,3241.5,20.0,776.0,-2846.5
1825,09:30:26.984,-2583.5,3191.0,21.5,794.0,-2737.5
1827,09:30:26.986,-2499.0,3102.5,23.0,734.0,-2793.5
1829,09:30:26.988,-2474.0,3168.0,24.0,746.0,-2809.5
1831,09:30:26.990,-2614.0,3192.0,24.0,785.0,-2915.5
1833,09:30:26.992,-2633.0,3121.5,23.5,806.5,-3045.0
1835,09:30:26.994,-2567.0,3083.0,23.0,797.5,-3087.5
1837,09:30:26.996,-2545.0,3074.0,23.0,743.5,-3082.0
1839,09:30:26.998,-2558.0,3096.0,22.0,693.0,-3105.0
1841,09:30:27,-2600.0,3132.5,21.0,661.0,-3133.5
1843,09:30:27.002,-2649.0,3171.0,19.5,598.5,-3158.0
1845,09:30:27.004,-2686.5,3192.0,19.5,539.5,-3166.0
1847,09:30:27.006,-2696.5,3189.0,19.5,487.5,-3153.0
1849,09:30:27.008,-2673.0,3160.0,20.0,427.5,-3122.0
1851,09:30:27.010,-2625.5,3116.5,21.0,336.0,-3085.5
1853,09:30:27.012,-2568.5,3074.0,21.5,283.5,-3052.5
1855,09:30:27.014,-2523.0,3045.0,21.5,247.5,-3031.0
1857,09:30:27.016,-2506.0,3035.0,20.5,87.5,-3030.5
1859,09:30:27.018,-2513.5,3047.0,19.0,-165.5,-3045.0
1861,09:30:27.020,-2547.0,3069.0,16.5,-212.5,-3063.5
1863,09:30:27.022,-2584.0,3091.5,14.5,-160.5,-3080.0
1865,09:30:27.024,-2612.5,3105.5,13.5,-205.5,-3085.0
1867,09:30:27.026,-2618.0,3102.0,13.5,-343.0,-3072.5
1869,09:30:27.028,-2598.5,3082.5,14.5,-480.5,-3051.5
1871,09:30:27.030,-2560.5,3051.0,15.5,-595.0,-3024.0
1873,09:30:27.032,-2515.0,3021.0,15.5,-768.0,-2997.5
1875,09:30:27.034,-2479.0,2999.5,15.5,-676.5,-2982.5
1877,09:30:27.036,-2447.0,2992.5,15.5,-548.0,-2977.0
1879,09:30:27.038,-2213.0,2995.5,15.5,-455.0,-2985.0
1881,09:30:27.040,-2124.0,3007.0,15.0,-383.5,-2995.0
1883,09:30:27.042,-2196.0,3020.5,14.5,-350.0,-3005.0
1885,09:30:27.044,-2311.5,3023.0,13.5,-424.5,-3008.0
1887,09:30:27.046,-2371.0,3021.0,12.5,-164.5,-2997.5
1889,09:30:27.048,-2305.0,3006.0,11.0,18.0,-2983.0
1891,09:30:27.050,-2112.5,2987.0,10.5,150.0,-2961.5
1893,09:30:27.052,-2098.5,2966.0,10.0,254.0,-2941.5
1895,09:30:27.054,-2074.5,2952.0,10.0,350.0,-2929.5
1897,09:30:27.056,-2003.0,2944.5,10.0,449.0,-2923.0
1899,09:30:27.058,-1902.5,2942.0,9.5,584.5,-2927.0
1901,09:30:27.060,-1851.5,2946.5,9.0,699.0,-2929.0
1903,09:30:27.062,-1948.0,2948.0,8.5,797.0,-2931.0
1905,09:30:27.064,-2078.5,2940.0,7.5,831.5,-2871.5
1907,09:30:27.066,-2169.5,2890.5,6.5,839.0,-2698.0
1909,09:30:27.068,-2223.5,2837.0,5.0,822.0,-2555.5
1911,09:30:27.070,-2227.0,2798.5,4.0,851.0,-2264.0
1913,09:30:27.072,-2189.5,2766.5,3.5,874.0,-1972.0
1915,09:30:27.074,-2134.0,2826.5,3.5,962.5,-1725.0
1917,09:30:27.076,-2179.5,2893.5,4.0,984.0,-1571.5
1919,09:30:27.078,-2119.0,2865.5,5.0,1027.5,-1312.5
1921,09:30:27.080,-2124.5,2854.5,6.0,1027.0,-1120.0
1923,09:30:27.082,-2199.0,2855.5,8.0,1020.5,-980.5
1925,09:30:27.084,-2162.5,2865.0,10.5,1078.5,-813.0
1927,09:30:27.086,-2000.5,2879.0,12.0,1196.0,-703.0
1929,09:30:27.088,-1777.0,2887.0,13.5,1341.5,-657.5
1931,09:30:27.090,-1674.0,2887.5,13.5,1441.0,-699.0
1933,09:30:27.092,-1712.5,2877.5,13.5,1478.5,-728.5
1935,09:30:27.094,-1822.5,2858.0,12.5,1499.0,-747.0
1937,09:30:27.096,-2021.0,2834.5,11.5,1516.0,-743.0
1939,09:30:27.098,-2222.5,2813.5,10.0,1549.5,-640.0
1941,09:30:27.100,-2340.5,2801.0,9.5,1588.5,-532.0
1943,09:30:27.102,-2348.5,2795.5,9.0,1566.0,-372.0
1945,09:30:27.104,-2320.5,2800.5,10.0,1504.5,-201.0
1947,09:30:27.106,-2309.5,2798.5,11.0,1483.5,-92.5
1949,09:30:27.108,-2307.5,2725.5,12.0,1494.5,-1.5
1951,09:30:27.110,-2224.0,2730.0,13.0,1536.0,72.5
1953,09:30:27.112,-1985.0,2814.5,13.5,1625.5,101.5
1955,09:30:27.114,-1713.0,2798.5,14.5,1694.5,68.5
1957,09:30:27.116,-1448.5,2770.5,14.5,1744.5,40.5
1959,09:30:27.118,-1295.5,2745.5,15.0,1769.5,29.0
1961,09:30:27.120,-1292.5,2686.5,14.5,1772.5,1.0
1963,09:30:27.122,-1285.0,2645.0,13.5,1875.5,19.5
1965,09:30:27.124,-1351.5,2614.0,11.0,2025.5,-7.5
1967,09:30:27.126,-1445.0,2628.5,9.5,2127.5,-121.5
1969,09:30:27.128,-1667.0,2568.0,9.5,2113.0,-355.0
1971,09:30:27.130,-2023.0,2358.0,11.5,1953.5,-621.0
1973,09:30:27.132,-2157.0,2216.0,13.0,1702.0,-739.5
1975,09:30:27.134,-2236.0,2049.5,15.0,1411.0,-789.0
1977,09:30:27.136,-2334.5,1890.0,16.5,1180.0,-896.5
1979,09:30:27.138,-2400.5,1708.0,18.0,947.0,-1083.0
1981,09:30:27.140,-2413.0,1560.0,19.5,671.0,-1208.5
1983,09:30:27.142,-2365.5,1488.5,19.5,384.5,-1248.5
1985,09:30:27.144,-2280.5,1474.0,19.0,139.5,-1257.0
1987,09:30:27.146,-2186.5,1458.0,18.5,-60.5,-1285.5
1989,09:30:27.148,-2119.0,1333.0,18.0,-196.0,-1402.0
1991,09:30:27.150,-2098.5,1216.5,17.0,-207.0,-1475.0
1993,09:30:27.152,-2127.0,1174.5,16.5,-164.5,-1380.5
1995,09:30:27.154,-2190.5,1123.5,15.0,-97.0,-1085.0
1997,09:30:27.156,-2259.0,1127.0,14.0,52.0,-740.0
1999,09:30:27.158,-2293.5,1099.0,13.5,215.0,-558.5
2001,09:30:27.160,-2153.5,1006.0,14.0,261.5,-583.5
2003,09:30:27.162,-2093.5,975.0,14.5,399.5,-408.5
2005,09:30:27.164,-1642.5,1031.0,16.0,422.0,-349.5
2007,09:30:27.166,-1420.0,1074.5,17.0,418.0,-299.0
2009,09:30:27.168,-1301.5,1045.0,16.5,432.0,-172.0
2011,09:30:27.170,-1143.5,1055.5,16.5,398.0,-24.5
2013,09:30:27.172,-986.0,1071.0,17.0,358.5,147.0
2015,09:30:27.174,-802.0,1096.5,17.5,312.0,211.0
2017,09:30:27.176,-647.0,1081.5,16.5,287.5,200.0
2019,09:30:27.178,-620.5,1085.0,16.0,262.0,203.0
2021,09:30:27.180,-701.0,1058.0,15.5,248.5,188.0
2023,09:30:27.182,-763.0,1043.0,15.5,200.5,148.5
2025,09:30:27.184,-716.5,1015.5,15.0,178.0,214.0
2027,09:30:27.186,-739.0,951.0,14.5,121.0,283.5
2029,09:30:27.188,-700.0,923.5,13.5,117.0,407.5
2031,09:30:27.190,-723.5,874.5,13.0,107.5,441.5
2033,09:30:27.192,-715.5,907.5,13.0,113.5,534.5
2035,09:30:27.194,-780.5,950.5,13.0,50.5,529.5
2037,09:30:27.196,-888.0,936.5,12.5,77.0,499.5
2039,09:30:27.198,-994.0,756.0,12.5,170.5,418.5
2041,09:30:27.200,-1027.0,521.5,12.0,226.5,398.0
2043,09:30:27.202,-991.5,392.0,10.5,78.5,499.5
2045,09:30:27.204,-1045.5,336.0,8.5,213.0,501.0
2047,09:30:27.206,-1117.5,401.5,6.0,211.0,545.5
2049,09:30:27.208,-1169.0,444.5,3.5,209.0,590.5
2051,09:30:27.210,-1218.0,387.0,0.5,51.0,661.0
2053,09:30:27.212,-1220.0,376.0,-2.5,-262.0,702.0
2055,09:30:27.214,-1169.0,462.0,-4.5,106.0,675.5
2057,09:30:27.216,-1017.5,609.5,-5.5,163.5,651.5
2059,09:30:27.218,-844.0,553.0,-5.5,159.5,765.5
2061,09:30:27.220,-723.5,530.5,-5.0,131.0,813.5
2063,09:30:27.222,-681.0,604.5,-4.5,92.5,860.0
2065,09:30:27.224,-613.5,693.0,-4.0,142.5,973.5
2067,09:30:27.226,-598.0,701.5,-3.5,236.5,1019.0
2069,09:30:27.228,-644.5,596.5,-3.5,334.5,1014.0
2071,09:30:27.230,-600.5,528.0,-3.0,492.0,1085.0
2073,09:30:27.232,-575.0,497.5,-2.5,654.5,1121.5
2075,09:30:27.234,-543.0,474.0,-1.5,722.5,1090.5
2077,09:30:27.236,-457.5,464.0,-1.5,793.0,1120.5
2079,09:30:27.238,-333.5,404.0,-2.0,850.5,1194.0
2081,09:30:27.240,-229.0,340.5,-2.5,884.0,1226.5
2083,09:30:27.242,-233.0,285.0,-3.0,952.0,1302.5
2085,09:30:27.244,-235.0,294.5,-4.0,1037.0,1499.5
2087,09:30:27.246,-208.0,139.0,-4.5,1029.5,1829.0
2089,09:30:27.248,-195.0,-31.0,-5.0,1068.5,2200.5
2091,09:30:27.250,-187.0,19.5,-6.0,1198.0,2345.5
2093,09:30:27.252,-221.5,51.0,-7.0,1348.0,2461.0
2095,09:30:27.254,-156.0,-48.5,-8.0,1511.5,2712.5
2097,09:30:27.256,3.0,-129.5,-8.5,1583.5,2940.5
2099,09:30:27.258,133.0,-133.0,-8.5,1628.0,3018.0
2101,09:30:27.260,26.0,-143.0,-9.0,1714.5,2991.5
2103,09:30:27.262,-245.0,-193.5,-10.0,1788.0,2927.5
2105,09:30:27.264,-463.5,-307.0,-12.0,1844.0,2915.0
2107,09:30:27.266,-567.5,-397.0,-13.0,1949.0,2918.0
2109,09:30:27.268,-690.5,-427.0,-13.5,1981.0,2920.0
2111,09:30:27.270,-847.0,-420.0,-14.5,1947.5,3008.0
2113,09:30:27.272,-1054.0,-435.0,-16.5,1931.0,3135.0
2115,09:30:27.274,-1296.5,-564.5,-18.5,1894.5,3247.0
2117,09:30:27.276,-1581.5,-823.0,-20.5,1903.5,3316.0
2119,09:30:27.278,-1782.0,-823.0,-23.0,1956.5,3392.0
2121,09:30:27.280,-1894.0,-680.0,-24.5,1909.5,3489.5
2123,09:30:27.282,-1954.5,-533.0,-25.5,1862.0,3488.0
2125,09:30:27.284,-1936.0,-464.0,-26.5,1831.0,3425.0
2127,09:30:27.286,-1790.5,-454.5,-27.0,1839.0,3405.0
2129,09:30:27.288,-1527.5,-469.0,-27.5,1865.0,3268.5
2131,09:30:27.290,-1425.5,-509.0,-28.0,1932.0,3117.5
2133,09:30:27.292,-1398.5,-553.0,-28.5,1933.0,3012.0
2135,09:30:27.294,-1354.0,-444.5,-29.5,1939.0,2931.0
2137,09:30:27.296,-1370.5,-300.5,-31.0,1934.5,2902.0
2139,09:30:27.298,-1351.0,-302.0,-31.0,1939.5,3074.0
2141,09:30:27.300,-1162.0,-405.0,-30.0,2014.0,3358.5
2143,09:30:27.302,-889.0,-554.5,-29.0,2179.5,3695.5
2145,09:30:27.304,-814.0,-731.5,-27.5,2194.5,3807.5
2147,09:30:27.306,-734.0,-754.0,-27.5,2172.5,3800.5
2149,09:30:27.308,-595.0,-646.0,-27.5,2061.5,3797.0
2151,09:30:27.310,-438.0,-488.0,-28.5,2006.5,3824.5
2153,09:30:27.312,-305.5,-483.0,-29.5,2004.5,3865.5
2155,09:30:27.314,-237.0,-576.5,-31.5,1997.5,3909.0
2157,09:30:27.316,-307.5,-556.0,-33.5,1925.5,3930.5
2159,09:30:27.318,-463.0,-613.5,-34.5,1862.5,3917.5
2161,09:30:27.320,-530.0,-708.5,-34.5,1764.0,3882.5
2163,09:30:27.322,-515.0,-698.5,-33.5,1692.5,3830.0
2165,09:30:27.324,-464.0,-709.5,-32.0,1590.5,3783.5
2167,09:30:27.326,-476.0,-861.0,-30.5,1507.0,3755.5
2169,09:30:27.328,-537.5,-1167.5,-29.5,1486.0,3751.0
2171,09:30:27.330,-557.0,-1362.0,-28.5,1432.5,3771.5
2173,09:30:27.332,-521.5,-1404.5,-28.5,1367.0,3802.5
2175,09:30:27.334,-483.0,-1369.5,-29.5,1333.0,3827.0
2177,09:30:27.336,-427.0,-1316.0,-30.5,1283.0,3836.0
2179,09:30:27.338,-319.0,-1259.5,-32.0,1352.0,3823.5
2181,09:30:27.340,-76.0,-1165.0,-33.5,1360.5,3792.5
2183,09:30:27.342,301.5,-1151.5,-35.5,1419.0,3755.5
2185,09:30:27.344,481.5,-1190.5,-37.0,1456.5,3722.0
2187,09:30:27.346,489.5,-1189.5,-38.5,1456.0,3700.5
2189,09:30:27.348,428.5,-1167.5,-40.0,1468.0,3700.0
2191,09:30:27.350,341.5,-1122.5,-40.5,1435.0,3714.5
2193,09:30:27.352,357.0,-1134.5,-39.5,1337.0,3732.5
2195,09:30:27.354,462.0,-1176.5,-38.5,1202.5,3745.5
2197,09:30:27.356,625.5,-1132.5,-38.0,1101.5,3748.0
2199,09:30:27.358,725.5,-1029.5,-37.0,997.5,3733.5
2201,09:30:27.360,725.5,-947.0,-36.5,913.5,3708.5
2203,09:30:27.362,662.0,-1013.0,-36.0,892.0,3681.0
2205,09:30:27.364,615.5,-1014.5,-35.0,910.5,3658.5
2207,09:30:27.366,539.5,-1027.5,-33.5,939.5,3646.0
2209,09:30:27.368,560.5,-1091.5,-32.0,947.5,3644.5
2211,09:30:27.370,705.5,-1129.0,-31.0,954.5,3642.5
2213,09:30:27.372,797.5,-1112.0,-29.5,903.5,3575.0
2215,09:30:27.374,736.5,-1051.0,-28.5,869.0,3474.5
2217,09:30:27.376,591.0,-989.5,-27.0,853.5,3372.5
2219,09:30:27.378,501.5,-1007.5,-26.0,847.5,3251.0
2221,09:30:27.380,335.5,-1082.5,-25.5,831.0,3112.0
2223,09:30:27.382,89.5,-1146.0,-23.0,806.5,2930.5
2225,09:30:27.384,-113.0,-1163.0,-19.5,823.5,2783.5
2227,09:30:27.386,-150.0,-1035.0,-15.5,849.5,2706.5
2229,09:30:27.388,-182.0,-962.5,-10.0,823.0,2678.5
2231,09:30:27.390,-219.5,-965.0,-4.0,853.0,2657.5
2233,09:30:27.392,-143.5,-936.5,3.0,888.0,2577.5
2235,09:30:27.394,20.0,-1035.5,11.0,838.5,2475.0
2237,09:30:27.396,334.0,-1145.5,20.0,804.0,2448.5
2239,09:30:27.398,642.0,-1207.5,29.0,832.0,2427.0
2241,09:30:27.400,761.5,-1135.0,37.0,887.5,2322.0
2243,09:30:27.402,740.5,-1029.5,43.5,974.5,2325.0
2245,09:30:27.404,659.5,-1118.0,49.5,971.0,2266.5
2247,09:30:27.406,607.0,-1133.5,54.5,952.0,2143.5
2249,09:30:27.408,655.0,-886.0,58.5,995.5,1944.0
2251,09:30:27.410,668.0,-623.0,62.5,1077.5,1648.5
2253,09:30:27.412,742.5,-641.0,65.5,1125.5,1435.0
2255,09:30:27.414,705.5,-882.5,68.5,1172.0,1360.5
2257,09:30:27.416,757.5,-1019.0,70.0,1317.0,1314.0
2259,09:30:27.418,778.5,-1095.5,70.0,1438.5,1256.0
2261,09:30:27.420,656.0,-1130.0,69.0,1493.0,1170.5
2263,09:30:27.422,584.5,-1178.5,68.5,1560.5,1211.0
2265,09:30:27.424,643.0,-1194.5,68.0,1576.0,1280.0
2267,09:30:27.426,837.5,-1150.5,67.0,1599.5,1357.0
2269,09:30:27.428,1008.0,-1137.0,66.0,1595.5,1483.5
2271,09:30:27.430,1126.0,-1137.0,65.0,1629.5,1563.0
2273,09:30:27.432,1096.5,-1071.0,64.0,1663.5,1551.0
2275,09:30:27.434,995.5,-1047.5,63.0,1731.5,1571.5
2277,09:30:27.436,915.0,-1069.5,61.0,1759.0,1543.5
2279,09:30:27.438,937.0,-1149.5,59.0,1682.5,1571.5
2281,09:30:27.440,1021.5,-1233.5,57.5,1593.0,1637.5
2283,09:30:27.442,1183.5,-1310.5,56.5,1572.5,1673.5
2285,09:30:27.444,1362.5,-1453.5,56.0,1543.0,1635.0
2287,09:30:27.446,1649.5,-1553.0,56.0,1549.0,1628.5
2289,09:30:27.448,1842.0,-1629.0,57.0,1578.0,1624.0
2291,09:30:27.450,2001.0,-1710.5,58.5,1616.5,1548.0
2293,09:30:27.452,1953.0,-1806.0,60.5,1623.5,1432.5
2295,09:30:27.454,1839.0,-1859.0,62.5,1650.0,1378.0
2297,09:30:27.456,1846.5,-1744.0,64.0,1627.5,1241.0
2299,09:30:27.458,1898.0,-1600.5,66.0,1522.0,1138.5
2301,09:30:27.460,1923.0,-1558.5,67.5,1452.0,1033.5
2303,09:30:27.462,1990.5,-1537.5,68.0,1483.0,912.5
2305,09:30:27.464,2045.0,-1600.0,67.0,1469.5,749.5
2307,09:30:27.466,2144.0,-1687.0,64.5,1493.0,716.0
2309,09:30:27.468,2231.0,-1740.0,61.5,1480.0,669.5
2311,09:30:27.470,2335.0,-1744.0,58.5,1413.0,680.5
2313,09:30:27.472,2561.5,-1693.0,56.5,1358.0,738.0
2315,09:30:27.474,2676.5,-1728.0,54.5,1269.0,729.5
2317,09:30:27.476,2547.0,-1821.5,53.5,1154.5,729.0
2319,09:30:27.478,2442.5,-1842.5,53.5,1089.0,732.5
2321,09:30:27.480,2501.0,-1824.5,55.0,1025.5,702.0
2323,09:30:27.482,2681.0,-1820.0,56.0,928.0,634.5
2325,09:30:27.484,2863.5,-1859.0,55.5,793.5,522.5
2327,09:30:27.486,3033.0,-1914.5,54.0,696.5,433.0
2329,09:30:27.488,3240.5,-1934.5,52.0,625.5,362.0
2331,09:30:27.490,3421.5,-1979.5,49.5,570.5,343.0
2333,09:30:27.492,3494.5,-2018.5,47.0,549.5,444.0
2335,09:30:27.494,3511.5,-2114.0,45.5,456.5,495.0
2337,09:30:27.496,3525.5,-2153.5,45.0,407.5,497.5
2339,09:30:27.498,3506.0,-2165.5,45.0,379.5,463.5
2341,09:30:27.500,3517.0,-2120.0,45.0,351.0,441.0
2343,09:30:27.502,3560.0,-2064.0,45.5,287.5,419.5
2345,09:30:27.504,3647.5,-2020.5,47.5,224.5,410.5
2347,09:30:27.506,3614.0,-2044.5,50.0,204.5,386.0
2349,09:30:27.508,3510.0,-2062.5,53.0,176.5,316.0
2351,09:30:27.510,3425.0,-2072.5,56.0,171.0,270.0
2353,09:30:27.512,3348.5,-2151.0,58.5,106.5,222.5
2355,09:30:27.514,3354.5,-2227.5,60.0,52.0,187.5
2357,09:30:27.516,3309.5,-2324.0,61.0,16.0,158.5
2359,09:30:27.518,3096.0,-2445.0,60.5,-21.0,64.5
2361,09:30:27.520,3064.0,-2504.0,59.0,-18.5,6.0
2363,09:30:27.522,3196.5,-2503.0,56.5,-17.5,-17.5
2365,09:30:27.524,3271.5,-2477.5,54.0,-10.0,-35.0
2367,09:30:27.526,3127.0,-2499.5,52.5,-54.0,-41.0
2369,09:30:27.528,2978.5,-2519.0,51.0,-66.0,-58.5
2371,09:30:27.530,2837.5,-2541.0,49.0,-101.5,-108.5
2373,09:30:27.532,2790.0,-2545.0,47.0,-124.5,-103.0
2375,09:30:27.534,2787.5,-2575.5,44.5,-114.5,-47.5
2377,09:30:27.536,2840.5,-2537.5,42.5,-114.0,-6.0
2379,09:30:27.538,2850.0,-2496.0,41.0,-207.0,6.5
2381,09:30:27.540,2845.5,-2522.0,39.5,-277.0,-24.0
2383,09:30:27.542,2775.5,-2565.0,38.0,-297.0,-109.0
2385,09:30:27.544,2690.5,-2632.0,36.5,-210.0,-179.5
2387,09:30:27.546,2561.5,-2696.0,35.5,-76.0,-295.5
2389,09:30:27.548,2492.5,-2696.0,34.5,-71.5,-417.5
2391,09:30:27.550,2447.5,-2645.0,35.0,-187.5,-471.5
2393,09:30:27.552,2412.5,-2644.0,35.5,-346.5,-513.0
2395,09:30:27.554,2369.5,-2713.0,37.0,-401.0,-616.5
2397,09:30:27.556,2351.5,-2765.5,38.5,-333.0,-740.5
2399,09:30:27.558,2387.5,-2743.0,39.5,-183.0,-838.0
2401,09:30:27.560,2395.0,-2711.0,39.5,-139.5,-894.0
2403,09:30:27.562,2400.5,-2629.5,39.5,-181.0,-866.0
2405,09:30:27.564,2312.0,-2608.5,39.0,-274.5,-867.0
2407,09:30:27.566,2199.5,-2623.5,38.0,-334.0,-830.5
2409,09:30:27.568,2089.0,-2613.5,37.5,-317.5,-773.5
2411,09:30:27.570,1960.0,-2611.5,37.5,-335.0,-801.0
2413,09:30:27.572,1892.0,-2584.5,38.0,-276.5,-825.5
2415,09:30:27.574,1824.0,-2560.0,38.0,-307.0,-959.5
2417,09:30:27.576,1820.0,-2506.5,37.5,-327.0,-983.5
2419,09:30:27.578,1822.0,-2446.5,37.5,-389.5,-968.0
2421,09:30:27.580,1748.0,-2401.5,37.0,-460.5,-979.0
2423,09:30:27.582,1620.0,-2353.0,35.5,-479.0,-964.5
2425,09:30:27.584,1440.5,-2360.0,33.5,-477.5,-976.5
2427,09:30:27.586,1303.5,-2306.0,32.5,-485.0,-982.0
2429,09:30:27.588,1210.0,-2208.5,31.5,-522.0,-935.5
2431,09:30:27.590,1152.0,-2098.0,30.5,-568.5,-826.5
2433,09:30:27.592,1137.0,-2000.0,29.5,-604.0,-710.5
2435,09:30:27.594,1109.5,-1949.0,27.5,-574.0,-573.5
2437,09:30:27.596,1070.0,-1930.5,25.5,-531.5,-457.0
2439,09:30:27.598,1012.0,-1924.5,23.5,-549.5,-345.0
2441,09:30:27.600,948.0,-1906.0,22.5,-579.0,-250.0
2443,09:30:27.602,865.5,-1911.0,22.5,-565.0,-217.0
2445,09:30:27.604,754.0,-1898.5,22.5,-578.5,-180.0
2447,09:30:27.606,655.5,-1816.5,23.0,-634.0,-116.0
2449,09:30:27.608,543.5,-1734.0,23.5,-725.5,-78.5
2451,09:30:27.610,492.0,-1566.5,22.5,-773.5,-31.0
2453,09:30:27.612,450.0,-1327.5,21.0,-773.0,-14.5
2455,09:30:27.614,390.5,-1096.5,20.5,-824.0,-22.0
2457,09:30:27.616,299.5,-923.5,21.0,-860.0,37.0
2459,09:30:27.618,314.5,-943.5,21.5,-841.0,102.5
2461,09:30:27.620,268.5,-1072.0,21.5,-827.0,78.0
2463,09:30:27.622,236.5,-1142.0,21.0,-786.5,59.5
2465,09:30:27.624,170.5,-1080.5,21.0,-790.5,28.0
2467,09:30:27.626,61.0,-1039.0,21.5,-861.0,-12.0
2469,09:30:27.628,22.0,-1145.5,21.0,-888.0,67.5
2471,09:30:27.630,-37.0,-1203.5,20.5,-959.0,166.0
2473,09:30:27.632,-60.5,-1198.5,20.0,-1111.0,221.0
2475,09:30:27.634,-81.5,-1219.0,20.5,-1228.5,191.0
2477,09:30:27.636,43.5,-1076.0,21.5,-1225.5,121.0
2479,09:30:27.638,226.5,-916.0,23.0,-1197.5,52.5
2481,09:30:27.640,233.0,-784.0,25.0,-1186.5,-64.0
2483,09:30:27.642,252.5,-689.5,26.5,-1142.0,-12.5
2485,09:30:27.644,247.0,-541.5,27.0,-1158.0,40.0
2487,09:30:27.646,160.5,-526.0,27.0,-1216.0,78.0
2489,09:30:27.648,99.0,-469.0,26.5,-1344.5,174.0
2491,09:30:27.650,37.5,-523.0,25.5,-1427.0,192.5
2493,09:30:27.652,40.5,-608.5,24.0,-1357.0,272.5
2495,09:30:27.654,63.5,-732.5,23.0,-1246.5,318.0
2497,09:30:27.656,94.0,-634.5,21.0,-1025.5,178.0
2499,09:30:27.658,30.5,-617.0,18.5,-924.5,45.0
2501,09:30:27.660,28.5,-589.5,17.5,-830.5,67.0
2503,09:30:27.662,56.5,-483.5,18.0,-816.0,52.0
2505,09:30:27.664,244.5,-341.5,19.5,-708.0,102.0
2507,09:30:27.666,422.5,-329.5,20.5,-538.5,49.0
2509,09:30:27.668,442.0,-499.0,22.0,-313.0,5.0
2511,09:30:27.670,502.5,-559.5,23.5,-87.5,33.0
2513,09:30:27.672,572.5,-441.0,24.5,-63.0,41.0
2515,09:30:27.674,592.5,-385.5,25.5,-127.5,-54.0
2517,09:30:27.676,738.5,-347.0,26.5,-174.5,-117.0
2519,09:30:27.678,983.0,-345.5,28.0,-164.0,-138.0
2521,09:30:27.680,1241.5,-357.5,29.0,14.0,-130.5
2523,09:30:27.682,1493.0,-480.5,29.5,177.5,-186.0
2525,09:30:27.684,1624.5,-704.0,29.5,226.5,-356.0
2527,09:30:27.686,1739.0,-884.0,29.5,255.0,-478.0
2529,09:30:27.688,1831.5,-1008.5,30.0,142.5,-613.0
2531,09:30:27.690,1733.0,-1127.0,30.5,133.0,-782.5
2533,09:30:27.692,1490.0,-1293.5,30.5,134.0,-963.0
2535,09:30:27.694,1330.0,-1404.5,29.0,-15.5,-1080.0
2537,09:30:27.696,1217.0,-1476.0,27.0,-334.5,-1100.0
2539,09:30:27.698,1186.5,-1440.5,25.0,-678.5,-940.0
2541,09:30:27.700,1193.0,-1387.0,23.0,-891.0,-772.0
2543,09:30:27.702,1126.5,-1336.0,21.5,-1061.0,-760.0
2545,09:30:27.704,1077.5,-1279.5,21.0,-1296.5,-782.5
2547,09:30:27.706,1156.0,-1166.0,20.5,-1516.0,-775.0
2549,09:30:27.708,1301.0,-1105.0,21.0,-1591.0,-787.0
2551,09:30:27.710,1473.5,-1080.5,21.0,-1573.5,-733.0
2553,09:30:27.712,1746.0,-841.5,21.0,-1729.5,-506.5
2555,09:30:27.714,2070.5,-569.0,20.5,-1865.0,-151.0
2557,09:30:27.716,2299.5,-451.5,21.0,-1846.5,166.5
2559,09:30:27.718,2516.5,-383.0,22.0,-1717.0,371.0
2561,09:30:27.720,2714.5,-330.5,24.0,-1529.0,570.5
2563,09:30:27.722,2792.5,-293.5,25.5,-1570.0,820.0
2565,09:30:27.724,2915.5,-183.0,26.0,-1830.5,1078.0
2567,09:30:27.726,3079.5,-19.5,25.5,-1997.5,1364.0
2569,09:30:27.728,3209.5,87.5,24.0,-2046.0,1563.0
2571,09:30:27.730,3470.5,147.5,23.0,-1906.0,1644.0
2573,09:30:27.732,3675.0,66.5,21.5,-1612.5,1645.0
2575,09:30:27.734,3748.5,-129.0,19.5,-1297.0,1549.0
2577,09:30:27.736,3761.5,-289.5,17.5,-999.0,1500.5
2579,09:30:27.738,3799.0,-411.5,15.5,-791.5,1508.0
2581,09:30:27.740,3869.5,-455.5,14.0,-662.0,1550.5
2583,09:30:27.742,3883.5,-525.0,12.5,-586.5,1617.0
2585,09:30:27.744,4014.0,-500.0,11.5,-501.5,1719.0
2587,09:30:27.746,4143.0,-468.5,12.0,-473.5,1732.0
2589,09:30:27.748,4292.5,-398.0,13.5,-440.5,1704.0
2591,09:30:27.750,4423.5,-382.0,15.0,-345.0,1652.0
2593,09:30:27.752,4541.5,-426.5,16.0,-244.5,1598.5
2595,09:30:27.754,4591.0,-526.5,17.5,-193.0,1562.0
2597,09:30:27.756,4601.5,-564.5,20.0,-230.5,1526.5
2599,09:30:27.758,4576.5,-594.5,22.0,-327.5,1455.5
2601,09:30:27.760,4523.0,-605.0,23.5,-424.5,1402.0
2603,09:30:27.762,4461.0,-656.5,25.5,-539.5,1300.0
2605,09:30:27.764,4409.0,-672.0,27.0,-525.5,1219.0
2607,09:30:27.766,4384.0,-626.5,28.0,-440.0,1178.5
2609,09:30:27.768,4390.0,-553.5,29.0,-323.5,1137.5
2611,09:30:27.770,4419.0,-517.0,30.5,-222.5,1070.5
2613,09:30:27.772,4454.0,-524.0,32.0,-170.0,951.5
2615,09:30:27.774,4481.0,-530.0,32.5,-134.5,802.0
2617,09:30:27.776,4488.0,-578.0,33.0,-138.0,643.5
2619,09:30:27.778,4468.5,-633.0,32.5,-191.5,514.0
2621,09:30:27.780,4432.0,-660.0,31.5,-231.5,427.0
2623,09:30:27.782,4390.5,-641.5,30.0,-242.5,330.5
2625,09:30:27.784,4354.0,-639.0,28.0,-185.5,209.5
2627,09:30:27.786,4332.0,-662.5,26.5,-54.0,58.5
2629,09:30:27.788,4332.0,-685.0,26.5,78.5,-50.0
2631,09:30:27.790,4345.0,-747.5,27.0,165.0,-191.0
2633,09:30:27.792,4365.5,-781.0,27.5,280.0,-270.5
2635,09:30:27.794,4378.0,-838.5,28.0,321.0,-368.5
2637,09:30:27.796,4378.5,-903.5,29.0,321.0,-449.0
2639,09:30:27.798,4367.5,-927.5,30.0,323.5,-484.5
2641,09:30:27.800,4343.5,-975.0,31.0,292.0,-539.0
2643,09:30:27.802,4314.5,-995.5,31.5,297.5,-559.5
2645,09:30:27.804,4290.0,-971.0,31.0,346.0,-583.5
2647,09:30:27.806,4274.0,-1005.5,31.0,389.0,-657.0
2649,09:30:27.808,4270.0,-1030.5,30.0,433.0,-764.5
2651,09:30:27.810,4270.5,-1045.5,28.5,475.0,-866.0
2653,09:30:27.812,4245.5,-1082.0,25.5,487.5,-992.5
2655,09:30:27.814,4184.0,-1076.5,23.5,509.0,-1067.0
2657,09:30:27.816,4142.5,-1022.0,21.5,523.0,-1099.0
2659,09:30:27.818,4072.0,-980.0,19.5,538.0,-1137.0
2661,09:30:27.820,3951.5,-969.5,17.5,552.0,-1192.0
2663,09:30:27.822,3795.5,-991.5,16.0,555.0,-1272.0
2665,09:30:27.824,3673.0,-1003.0,15.0,597.0,-1262.5
2667,09:30:27.826,3606.5,-1025.0,14.0,671.5,-1145.5
2669,09:30:27.828,3497.5,-1083.0,14.5,708.5,-1074.0
2671,09:30:27.830,3371.0,-1113.5,15.5,715.0,-1041.0
2673,09:30:27.832,3270.0,-1109.5,16.0,717.5,-970.5
2675,09:30:27.834,3143.5,-1140.0,17.0,671.0,-948.5
2677,09:30:27.836,3017.5,-1202.5,18.0,636.0,-969.0
2679,09:30:27.838,2889.0,-1266.5,17.5,609.5,-985.0
2681,09:30:27.840,2747.5,-1314.0,15.0,582.0,-978.5
2683,09:30:27.842,2625.5,-1297.0,12.5,596.5,-940.0
2685,09:30:27.844,2508.0,-1229.5,11.0,580.5,-931.0
2687,09:30:27.846,2404.5,-1154.0,11.5,507.0,-931.5
2689,09:30:27.848,2295.5,-1108.5,12.0,434.0,-873.5
2691,09:30:27.850,2176.0,-1073.5,12.0,384.5,-768.0
2693,09:30:27.852,2109.0,-1035.5,12.0,379.0,-660.0
2695,09:30:27.854,2010.0,-1049.5,11.0,371.5,-589.0
2697,09:30:27.856,1842.0,-1062.0,10.5,356.0,-544.5
2699,09:30:27.858,1754.5,-987.0,10.5,371.5,-483.0
2701,09:30:27.860,1658.5,-927.5,10.5,439.0,-412.5
2703,09:30:27.862,1563.0,-905.0,10.0,523.5,-334.0
2705,09:30:27.864,1418.0,-987.5,10.0,577.5,-282.0
2707,09:30:27.866,1307.5,-971.5,9.5,625.0,-213.0
2709,09:30:27.868,1163.5,-987.5,8.0,641.5,-139.5
2711,09:30:27.870,1071.5,-962.0,6.5,701.0,-1.5
2713,09:30:27.872,951.0,-965.5,6.5,713.5,111.5
2715,09:30:27.874,862.0,-900.0,6.0,734.5,228.0
2717,09:30:27.876,763.0,-904.5,6.0,736.0,309.0
2719,09:30:27.878,723.0,-852.5,6.0,727.5,386.5
2721,09:30:27.880,678.0,-794.5,5.5,728.5,461.0
2723,09:30:27.882,622.0,-783.0,5.5,726.5,557.5
2725,09:30:27.884,562.5,-727.5,5.5,778.0,631.5
2727,09:30:27.886,572.5,-585.5,5.0,865.0,764.5
2729,09:30:27.888,547.0,-484.0,4.0,781.5,912.0
2731,09:30:27.890,474.5,-307.0,4.5,614.5,1081.0
2733,09:30:27.892,467.0,-169.5,5.5,493.0,1186.5
2735,09:30:27.894,495.5,-415.5,6.5,463.5,1083.5
2737,09:30:27.896,484.5,-546.0,7.5,451.5,1085.5
2739,09:30:27.898,618.0,-682.5,8.5,521.5,1097.0
2741,09:30:27.900,738.0,-764.0,10.0,611.0,1045.0
2743,09:30:27.902,852.5,-742.0,11.5,705.0,1008.5
2745,09:30:27.904,901.5,-855.5,12.5,734.5,816.5
2747,09:30:27.906,917.5,-936.5,12.5,774.5,642.0
2749,09:30:27.908,971.5,-1049.5,13.0,796.5,529.5
2751,09:30:27.910,1002.5,-1153.0,13.0,781.0,394.0
2753,09:30:27.912,990.0,-1210.0,12.5,792.0,299.5
2755,09:30:27.914,990.5,-1195.5,11.5,762.5,259.5
2757,09:30:27.916,970.0,-1058.5,11.5,662.5,244.5
2759,09:30:27.918,935.5,-998.5,11.0,529.5,218.5
2761,09:30:27.920,938.5,-992.5,11.0,457.0,239.5
2763,09:30:27.922,967.5,-1022.5,10.5,394.0,235.5
2765,09:30:27.924,944.0,-1077.0,9.5,401.5,214.5
2767,09:30:27.926,863.5,-1097.5,8.5,403.5,202.5
2769,09:30:27.928,807.0,-1124.0,8.5,395.5,258.0
2771,09:30:27.930,785.0,-1168.0,8.5,389.0,309.5
2773,09:30:27.932,774.0,-1130.0,9.5,475.0,361.0
2775,09:30:27.934,720.0,-1096.5,10.5,412.5,392.5
2777,09:30:27.936,644.5,-1036.0,12.0,346.5,450.5
2779,09:30:27.938,555.0,-1004.5,13.5,284.0,548.5
2781,09:30:27.940,488.5,-1040.0,14.5,251.0,635.0
2783,09:30:27.942,454.5,-992.0,14.5,199.0,726.0
2785,09:30:27.944,433.0,-923.5,14.0,154.0,831.5
2787,09:30:27.946,433.0,-937.5,13.5,107.5,931.0
2789,09:30:27.948,462.0,-936.5,12.5,62.0,1002.5
2791,09:30:27.950,516.5,-903.0,12.0,42.5,1086.5
2793,09:30:27.952,501.0,-896.5,12.0,38.5,1152.5
2795,09:30:27.954,429.5,-856.5,12.0,-3.5,1194.0
2797,09:30:27.956,355.5,-824.0,11.5,-55.0,1244.5
2799,09:30:27.958,302.0,-812.5,11.0,-69.5,1377.0
2801,09:30:27.960,306.5,-793.0,10.0,-67.5,1530.5
2803,09:30:27.962,318.5,-850.0,8.5,-64.5,1605.5
2805,09:30:27.964,300.0,-922.0,7.0,-52.0,1637.0
2807,09:30:27.966,258.5,-996.0,6.0,20.5,1721.0
2809,09:30:27.968,247.0,-1036.0,6.0,96.0,1859.0
2811,09:30:27.970,218.5,-1080.0,7.5,125.5,1963.5
2813,09:30:27.972,232.0,-1039.5,9.5,198.0,2030.0
2815,09:30:27.974,264.5,-956.5,11.0,263.5,2091.0
2817,09:30:27.976,290.0,-918.5,12.5,290.5,2164.0
2819,09:30:27.978,353.0,-901.5,14.0,366.5,2215.0
2821,09:30:27.980,414.5,-911.5,16.5,488.0,2283.5
2823,09:30:27.982,394.0,-1039.0,19.0,554.0,2377.5
2825,09:30:27.984,378.0,-1178.5,21.0,584.5,2468.5
2827,09:30:27.986,363.0,-1240.5,21.0,590.5,2509.5
2829,09:30:27.988,338.5,-1254.0,20.0,596.0,2503.0
2831,09:30:27.990,346.0,-1298.0,17.5,648.0,2518.0
2833,09:30:27.992,361.0,-1297.0,14.0,734.0,2553.5
2835,09:30:27.994,342.0,-1323.5,10.5,807.5,2559.5
2837,09:30:27.996,397.5,-1374.5,7.0,915.5,2608.0
2839,09:30:27.998,462.5,-1405.5,3.5,973.0,2698.0
2841,09:30:28,547.5,-1376.5,1.0,991.0,2805.0
2843,09:30:28.002,614.0,-1289.5,-0.5,895.5,2803.0
2845,09:30:28.004,637.5,-1173.5,-1.0,761.0,2740.5
2847,09:30:28.006,602.0,-1309.0,0.0,624.5,2721.0
2849,09:30:28.008,653.0,-1448.5,1.5,603.5,2797.0
2851,09:30:28.010,693.0,-1581.5,3.0,586.5,2832.5
2853,09:30:28.012,741.5,-1645.0,5.0,537.0,2807.5
2855,09:30:28.014,817.0,-1585.0,6.5,494.0,2722.5
2857,09:30:28.016,882.0,-1561.0,9.0,412.5,2669.5
2859,09:30:28.018,963.5,-1598.5,11.5,382.5,2705.5
2861,09:30:28.020,1067.0,-1713.0,14.5,388.0,2760.0
2863,09:30:28.022,1132.5,-1772.5,17.0,346.0,2826.0
2865,09:30:28.024,1167.5,-1795.5,19.5,311.5,2827.0
2867,09:30:28.026,1185.0,-1755.0,22.0,281.0,2758.5
2869,09:30:28.028,1223.0,-1656.5,24.0,209.0,2642.0
2871,09:30:28.030,1215.5,-1586.5,25.5,129.5,2547.0
2873,09:30:28.032,1191.0,-1534.5,26.0,74.5,2498.0
2875,09:30:28.034,1199.5,-1511.0,25.5,71.5,2452.0
2877,09:30:28.036,1175.5,-1469.0,24.5,6.5,2384.5
2879,09:30:28.038,1194.0,-1401.5,24.0,-38.5,2352.5
2881,09:30:28.040,1228.0,-1360.0,24.5,-75.0,2337.0
2883,09:30:28.042,1263.5,-1312.5,25.5,-112.5,2285.0
2885,09:30:28.044,1299.5,-1226.5,26.0,-138.0,2215.0
2887,09:30:28.046,1352.0,-1176.0,26.0,-159.0,2167.0
2889,09:30:28.048,1354.5,-1191.0,25.0,-200.5,2137.5
2891,09:30:28.050,1342.0,-1223.0,23.0,-212.0,2129.0
2893,09:30:28.052,1311.5,-1265.0,20.0,-208.0,2113.0
2895,09:30:28.054,1294.5,-1280.0,16.5,-234.5,2135.5
2897,09:30:28.056,1234.0,-1313.0,14.5,-214.5,2118.0
2899,09:30:28.058,1127.0,-1396.0,14.0,-170.5,1984.0
2901,09:30:28.060,1089.0,-1348.0,13.5,-127.5,1897.5
2903,09:30:28.062,1047.0,-1288.0,13.0,-73.0,1805.0
2905,09:30:28.064,951.5,-1293.0,13.5,-92.0,1641.0
2907,09:30:28.066,807.0,-1323.5,13.0,-123.0,1525.5
2909,09:30:28.068,714.0,-1277.0,12.5,-156.5,1459.0
2911,09:30:28.070,715.0,-1175.0,12.5,-189.0,1380.0
2913,09:30:28.072,688.5,-1166.0,13.5,-229.5,1272.0
2915,09:30:28.074,632.5,-1246.5,15.5,-295.5,1165.5
2917,09:30:28.076,650.5,-1337.0,17.0,-298.5,1153.5
2919,09:30:28.078,718.5,-1375.0,17.5,-298.0,1160.0
2921,09:30:28.080,704.5,-1369.0,18.5,-306.5,1163.5
2923,09:30:28.082,534.0,-1358.0,19.0,-284.0,1131.0
2925,09:30:28.084,332.5,-1346.0,19.5,-274.5,1050.5
2927,09:30:28.086,267.0,-1319.0,19.0,-276.5,1018.0
2929,09:30:28.088,295.5,-1241.0,18.0,-279.5,1037.5
2931,09:30:28.090,234.5,-1199.5,17.0,-285.5,999.5
2933,09:30:28.092,111.5,-1181.0,16.0,-234.5,869.5
2935,09:30:28.094,-30.5,-1160.0,14.0,-197.0,760.0
2937,09:30:28.096,-139.0,-1089.5,11.5,-153.5,722.5
2939,09:30:28.098,-215.0,-1048.5,8.5,-12.5,705.5
2941,09:30:28.100,-243.5,-1036.5,6.5,167.0,684.5
2943,09:30:28.102,-276.5,-1018.5,5.0,238.0,692.0
2945,09:30:28.104,-301.0,-1027.5,4.5,265.0,701.5
2947,09:30:28.106,-337.5,-1065.0,4.0,305.0,665.5
2949,09:30:28.108,-367.5,-1082.5,3.5,390.0,683.5
2951,09:30:28.110,-424.5,-1068.5,3.0,473.0,753.0
2953,09:30:28.112,-551.5,-1036.0,2.5,520.0,827.0
2955,09:30:28.114,-697.5,-1076.5,2.0,544.5,889.5
2957,09:30:28.116,-769.5,-1082.0,1.0,603.5,933.0
2959,09:30:28.118,-824.0,-1039.5,0.0,645.5,988.0
2961,09:30:28.120,-848.5,-947.0,-1.5,682.0,1059.0
2963,09:30:28.122,-870.5,-928.0,-2.0,747.0,1162.5
2965,09:30:28.124,-953.0,-910.0,-2.5,786.5,1248.0
2967,09:30:28.126,-1064.5,-909.5,-3.0,812.0,1333.0
2969,09:30:28.128,-1132.0,-928.5,-4.0,826.5,1409.0
2971,09:30:28.130,-1158.0,-971.0,-5.0,762.0,1450.0
2973,09:30:28.132,-1052.5,-863.5,-5.5,752.0,1666.5
2975,09:30:28.134,-943.0,-806.0,-4.0,755.5,1857.0
2977,09:30:28.136,-908.5,-712.0,-2.0,744.5,1836.5
2979,09:30:28.138,-796.5,-658.0,-0.5,764.5,1888.5
2981,09:30:28.140,-762.0,-620.5,0.0,693.0,2004.0
2983,09:30:28.142,-819.0,-629.5,1.5,636.5,2200.0
2985,09:30:28.144,-809.5,-638.5,2.0,668.0,2396.5
2987,09:30:28.146,-741.5,-589.5,1.5,739.5,2571.5
2989,09:30:28.148,-676.0,-558.0,1.0,846.5,2817.0
2991,09:30:28.150,-672.0,-524.0,0.5,813.0,2967.0
2993,09:30:28.152,-563.0,-371.5,0.0,831.0,3019.0
2995,09:30:28.154,-302.5,-261.0,-1.0,866.5,3078.5
2997,09:30:28.156,-141.5,-409.0,-2.0,765.0,3127.0
2999,09:30:28.158,-53.0,-689.0,-3.5,656.0,3140.0
3001,09:30:28.160,-31.5,-986.0,-5.0,614.5,3115.0
3003,09:30:28.162,-23.0,-1177.0,-7.0,644.0,3060.5
3005,09:30:28.164,-2.5,-1288.0,-9.0,597.0,2997.0
3007,09:30:28.166,-69.0,-1410.5,-11.0,511.5,2944.5
3009,09:30:28.168,-143.5,-1504.5,-12.0,440.0,2921.0
3011,09:30:28.170,-228.0,-1601.0,-12.5,387.5,2932.5
3013,09:30:28.172,-314.5,-1817.5,-12.0,439.0,2964.5
3015,09:30:28.174,-487.0,-2265.5,-12.0,644.5,3006.5
3017,09:30:28.176,-701.0,-2726.5,-12.5,915.0,3040.0
3019,09:30:28.178,-816.0,-3108.0,-13.0,983.5,3047.0
3021,09:30:28.180,-793.0,-3197.5,-14.0,838.0,3027.5
3023,09:30:28.182,-760.5,-3122.5,-15.5,624.5,2988.0
3025,09:30:28.184,-683.0,-3143.5,-17.0,505.0,2942.5
3027,09:30:28.186,-568.0,-3223.5,-17.0,495.0,2904.0
3029,09:30:28.188,-483.5,-3190.0,-16.0,494.0,2887.0
3031,09:30:28.190,-412.5,-2937.0,-14.5,377.0,2890.5
3033,09:30:28.192,-361.0,-2681.5,-14.0,231.5,2910.0
3035,09:30:28.194,-382.5,-2438.5,-13.5,128.5,2936.0
3037,09:30:28.196,-437.0,-2131.5,-12.5,37.5,2954.5
3039,09:30:28.198,-494.0,-1827.5,-11.5,-23.0,2958.0
3041,09:30:28.200,-533.5,-1552.5,-10.5,-51.5,2944.5
3043,09:30:28.202,-531.0,-1353.0,-9.0,-30.0,2917.5
3045,09:30:28.204,-519.0,-1244.5,-8.0,-48.0,2885.0
3047,09:30:28.206,-445.5,-1105.5,-6.5,-89.5,2775.5
3049,09:30:28.208,-351.5,-1059.0,-4.5,-130.5,2572.0
3051,09:30:28.210,-253.5,-1063.5,-4.0,-175.5,2415.0
3053,09:30:28.212,-242.5,-1006.0,-4.0,-271.5,2324.0
3055,09:30:28.214,-213.5,-906.5,-3.5,-387.5,2242.5
3057,09:30:28.216,-260.0,-846.0,-2.5,-471.0,2114.0
3059,09:30:28.218,-303.0,-673.0,-2.5,-514.0,2033.0
3061,09:30:28.220,-250.5,-489.5,-4.5,-496.5,2022.0
3063,09:30:28.222,-203.5,-367.0,-6.0,-435.5,1975.0
3065,09:30:28.224,-147.0,-233.0,-7.0,-338.5,1844.5
3067,09:30:28.226,-75.0,-196.5,-6.5,-220.0,1734.5
3069,09:30:28.228,-23.5,-198.0,-4.0,-139.5,1672.5
3071,09:30:28.230,-3.0,-177.5,-1.0,-80.5,1622.5
3073,09:30:28.232,40.5,-138.5,2.0,-24.0,1596.5
3075,09:30:28.234,86.5,-71.5,5.0,-16.0,1625.0
3077,09:30:28.236,126.5,96.0,7.5,4.0,1671.5
3079,09:30:28.238,114.0,255.0,9.5,70.0,1533.5
3081,09:30:28.240,-59.5,271.0,12.0,24.0,1253.5
3083,09:30:28.242,-294.5,144.0,14.5,-67.5,928.0
3085,09:30:28.244,-431.5,-72.0,16.5,-244.5,782.5
3087,09:30:28.246,-556.5,-172.5,17.5,-480.5,680.0
3089,09:30:28.248,-666.5,-303.5,18.5,-629.0,612.5
3091,09:30:28.250,-803.5,-422.5,18.0,-791.5,440.5
3093,09:30:28.252,-952.0,-575.0,17.5,-1003.5,289.5
3095,09:30:28.254,-967.5,-649.0,18.0,-1331.0,278.5
3097,09:30:28.256,-960.0,-680.5,20.0,-1692.5,291.0
3099,09:30:28.258,-881.0,-703.5,22.0,-1979.0,354.0
3101,09:30:28.260,-873.0,-1135.0,23.5,-2173.0,579.5
3103,09:30:28.262,-886.0,-1349.5,25.0,-2286.5,1021.5
3105,09:30:28.264,-869.5,-1387.5,26.0,-2376.0,1593.5
3107,09:30:28.266,-786.5,-1464.5,26.0,-2325.0,1851.5
3109,09:30:28.268,-573.0,-1340.0,27.5,-2193.0,1816.0
3111,09:30:28.270,-391.5,-1133.0,29.0,-2093.5,1720.5
3113,09:30:28.272,-246.5,-930.5,30.0,-2039.0,1424.5
3115,09:30:28.274,-127.0,-766.5,30.5,-1999.0,1024.5
3117,09:30:28.276,154.0,-583.0,31.5,-1932.5,815.0
3119,09:30:28.278,418.5,-298.0,33.0,-1839.0,788.5
3121,09:30:28.280,586.5,51.0,34.5,-1754.0,714.5
3123,09:30:28.282,734.5,429.0,36.0,-1620.5,587.0
3125,09:30:28.284,792.5,775.0,37.5,-1490.5,493.5
3127,09:30:28.286,903.5,1030.5,38.5,-1376.5,366.5
3129,09:30:28.288,1069.5,1162.0,39.5,-1266.5,279.0
3131,09:30:28.290,1219.0,1186.5,41.0,-1220.0,211.0
3133,09:30:28.292,1330.0,1179.0,41.5,-1190.0,248.5
3135,09:30:28.294,1276.0,1127.5,42.0,-1088.5,343.0
3137,09:30:28.296,1154.0,1092.0,42.0,-966.0,399.0
3139,09:30:28.298,1059.5,1113.5,42.0,-890.0,363.0
3141,09:30:28.300,1060.5,1234.5,42.0,-797.0,271.5
3143,09:30:28.302,1105.5,1386.5,41.5,-717.0,158.5
3145,09:30:28.304,1133.5,1509.5,40.0,-693.0,61.5
3147,09:30:28.306,1171.5,1596.5,38.5,-688.5,66.5
3149,09:30:28.308,1221.0,1642.0,37.0,-665.5,195.0
3151,09:30:28.310,1214.0,1632.5,34.5,-604.0,401.0
3153,09:30:28.312,1223.0,1602.0,31.5,-570.5,572.5
3155,09:30:28.314,1253.0,1564.0,28.0,-554.5,701.5
3157,09:30:28.316,1356.0,1631.0,25.5,-537.5,822.5
3159,09:30:28.318,1419.5,1741.0,25.0,-505.5,890.0
3161,09:30:28.320,1348.5,1834.0,25.5,-538.0,813.5
3163,09:30:28.322,1346.5,1929.0,25.0,-549.5,739.5
3165,09:30:28.324,1422.5,2009.0,24.5,-576.5,709.5
3167,09:30:28.326,1492.5,2108.5,22.5,-564.5,746.5
3169,09:30:28.328,1524.0,2151.5,21.0,-536.0,844.5
3171,09:30:28.330,1565.5,2218.0,19.5,-495.5,1018.5
3173,09:30:28.332,1504.0,2267.0,17.5,-465.0,1207.5
3175,09:30:28.334,1368.0,2347.0,14.5,-450.0,1385.0
3177,09:30:28.336,1288.5,2469.0,11.0,-422.5,1533.0
3179,09:30:28.338,1327.5,2491.0,7.5,-365.0,1519.5
3181,09:30:28.340,1407.5,2356.0,5.0,-307.0,1301.5
3183,09:30:28.342,1531.0,2294.0,3.0,-189.5,1077.5
3185,09:30:28.344,1595.5,2254.5,3.0,-75.5,920.5
3187,09:30:28.346,1593.0,2199.5,3.5,6.5,873.5
3189,09:30:28.348,1583.0,2142.5,4.5,59.0,888.5
3191,09:30:28.350,1649.5,2032.5,5.0,129.0,888.5
3193,09:30:28.352,1763.5,1928.5,5.0,258.0,848.5
3195,09:30:28.354,1843.0,1836.0,5.5,396.0,809.0
3197,09:30:28.356,1955.0,1793.5,6.5,533.5,773.0
3199,09:30:28.358,2162.0,1824.5,7.5,623.5,690.0
3201,09:30:28.360,2339.0,1883.0,8.0,747.5,589.0
3203,09:30:28.362,2357.0,1909.0,7.0,845.5,489.5
3205,09:30:28.364,2321.0,1872.0,5.5,903.0,409.5
3207,09:30:28.366,2362.0,1862.0,5.0,960.5,396.0
3209,09:30:28.368,2470.0,1848.0,4.5,1005.5,362.5
3211,09:30:28.370,2554.0,1795.5,3.0,1077.5,268.0
3213,09:30:28.372,2688.0,1723.5,1.0,1192.5,237.0
3215,09:30:28.374,2767.5,1639.0,0.0,1260.5,251.0
3217,09:30:28.376,2810.0,1695.0,-0.5,1322.5,225.0
3219,09:30:28.378,2807.0,1763.5,0.0,1386.5,180.5
3221,09:30:28.380,2912.0,1737.0,0.0,1429.5,213.0
3223,09:30:28.382,3083.5,1703.0,0.0,1449.0,299.0
3225,09:30:28.384,3272.5,1702.5,1.0,1439.5,404.5
3227,09:30:28.386,3422.5,1694.5,2.5,1444.5,429.5
3229,09:30:28.388,3568.5,1670.0,5.0,1482.5,454.0
3231,09:30:28.390,3597.5,1620.0,7.5,1523.0,414.0
3233,09:30:28.392,3493.5,1560.0,9.0,1572.5,412.0
3235,09:30:28.394,3408.0,1475.5,10.0,1601.5,423.0
3237,09:30:28.396,3369.0,1386.5,11.5,1618.5,429.5
3239,09:30:28.398,3393.0,1396.0,11.5,1683.5,544.0
3241,09:30:28.400,3315.0,1339.5,12.0,1644.5,549.0
3243,09:30:28.402,3248.5,1254.5,12.0,1637.0,514.0
3245,09:30:28.404,3150.5,1164.0,11.0,1662.0,533.5
3247,09:30:28.406,2989.0,1078.0,10.0,1644.5,505.5
3249,09:30:28.408,3004.5,1073.5,8.5,1669.0,450.5
3251,09:30:28.410,2899.0,1035.0,6.5,1697.5,352.0
3253,09:30:28.412,2754.5,936.0,5.0,1707.0,258.5
3255,09:30:28.414,2632.0,827.0,3.5,1713.0,198.0
3257,09:30:28.416,2566.5,736.5,1.5,1731.5,169.0
3259,09:30:28.418,2470.0,686.0,0.0,1754.0,171.0
3261,09:30:28.420,2320.5,626.0,-2.5,1814.0,194.5
3263,09:30:28.422,2213.5,565.5,-4.5,1825.5,193.0
3265,09:30:28.424,2090.5,467.5,-6.0,1792.0,171.5
3267,09:30:28.426,1959.5,334.0,-7.0,1752.5,168.0
3269,09:30:28.428,1864.0,238.5,-7.0,1701.0,177.0
3271,09:30:28.430,1718.5,207.0,-6.5,1574.0,137.5
3273,09:30:28.432,1535.0,218.5,-5.5,1486.5,67.5
3275,09:30:28.434,1331.0,199.0,-5.0,1440.5,13.5
3277,09:30:28.436,1171.5,119.0,-4.0,1428.5,-41.5
3279,09:30:28.438,1100.5,42.5,-3.0,1422.5,-77.5
3281,09:30:28.440,1070.0,10.0,-2.0,1429.0,-89.5
3283,09:30:28.442,1044.0,0.5,-1.5,1426.0,-115.5
3285,09:30:28.444,992.0,23.0,-0.5,1406.0,-140.0
3287,09:30:28.446,859.0,26.0,0.0,1389.0,-138.5
3289,09:30:28.448,743.0,0.0,0.0,1410.0,-166.5
3291,09:30:28.450,651.5,25.0,1.0,1456.5,-275.5
3293,09:30:28.452,558.5,76.0,2.0,1467.0,-424.0
3295,09:30:28.454,423.5,79.0,3.5,1398.5,-568.0
3297,09:30:28.456,306.5,28.0,5.0,1334.0,-658.0
3299,09:30:28.458,287.5,-34.0,6.5,1283.0,-740.5
3301,09:30:28.460,226.0,-134.0,7.5,1188.0,-818.5
3303,09:30:28.462,209.5,-192.5,8.0,1152.0,-811.0
3305,09:30:28.464,181.0,-244.5,7.5,1131.5,-843.5
3307,09:30:28.466,131.5,-309.0,6.5,1150.0,-899.0
3309,09:30:28.468,93.5,-262.0,5.5,1156.5,-918.0
3311,09:30:28.470,127.0,-206.5,4.5,1127.5,-882.5
3313,09:30:28.472,156.0,-181.5,4.0,1004.5,-800.0
3315,09:30:28.474,179.0,-146.5,4.0,781.0,-643.5
3317,09:30:28.476,225.5,-156.0,5.0,749.0,-561.5
3319,09:30:28.478,271.5,-223.5,7.0,823.0,-611.5
3321,09:30:28.480,374.0,-215.5,8.5,833.5,-670.0
3323,09:30:28.482,381.0,-198.0,9.5,747.0,-713.0
3325,09:30:28.484,403.5,-101.0,10.0,728.0,-707.5
3327,09:30:28.486,358.5,-86.5,9.5,584.0,-815.5
3329,09:30:28.488,429.0,-31.5,9.0,488.5,-855.5
3331,09:30:28.490,525.5,61.5,8.0,530.5,-857.0
3333,09:30:28.492,572.5,90.5,6.5,544.0,-923.0
3335,09:30:28.494,626.0,86.5,5.0,534.5,-987.5
3337,09:30:28.496,648.5,67.5,3.5,553.0,-983.5
3339,09:30:28.498,658.0,48.0,2.5,572.0,-957.0
3341,09:30:28.500,762.0,63.0,1.0,706.0,-857.5
3343,09:30:28.502,754.5,80.0,0.0,704.5,-786.5
3345,09:30:28.504,709.0,110.0,-1.0,610.0,-704.0
3347,09:30:28.506,653.0,60.0,-1.5,648.0,-648.0
3349,09:30:28.508,499.0,-10.0,-1.5,722.0,-686.0
3351,09:30:28.510,358.5,-81.0,-1.5,687.0,-661.5
3353,09:30:28.512,347.0,-90.5,-1.0,644.5,-527.5
3355,09:30:28.514,295.0,-45.0,-0.5,640.0,-478.0
3357,09:30:28.516,193.5,-97.0,-0.5,574.0,-551.5
3359,09:30:28.518,145.0,-150.0,-0.5,527.0,-616.0
3361,09:30:28.520,13.0,-217.5,0.0,478.0,-653.0
3363,09:30:28.522,-123.5,-246.5,0.0,473.0,-678.0
3365,09:30:28.524,-235.0,-288.0,0.0,495.0,-625.0
3367,09:30:28.526,-412.5,-410.5,0.0,510.0,-647.5
3369,09:30:28.528,-571.0,-489.5,0.0,570.5,-657.0
3371,09:30:28.530,-756.0,-546.0,0.0,558.0,-712.5
3373,09:30:28.532,-941.5,-593.0,0.0,500.0,-755.5
3375,09:30:28.534,-1099.5,-630.0,-1.0,466.0,-774.0
3377,09:30:28.536,-1267.0,-604.5,-2.5,457.0,-786.5
3379,09:30:28.538,-1458.0,-591.5,-3.5,455.0,-772.0
3381,09:30:28.540,-1661.0,-619.5,-4.0,422.5,-795.5
3383,09:30:28.542,-1827.0,-555.5,-4.5,361.5,-812.5
3385,09:30:28.544,-1988.0,-456.0,-4.0,220.5,-816.0
3387,09:30:28.546,-2196.0,-503.5,-3.5,131.5,-847.0
3389,09:30:28.548,-2398.0,-691.0,-3.0,303.0,-932.5
3391,09:30:28.550,-2631.5,-899.0,-2.5,545.5,-1106.0
3393,09:30:28.552,-2796.0,-952.5,-2.0,665.5,-1238.5
3395,09:30:28.554,-2895.0,-951.0,-2.0,665.0,-1319.0
3397,09:30:28.556,-2985.0,-1029.0,-2.0,602.5,-1441.5
3399,09:30:28.558,-3027.5,-1162.5,-1.5,598.5,-1551.0
3401,09:30:28.560,-3074.0,-1257.0,-1.0,687.0,-1588.5
3403,09:30:28.562,-3114.5,-1304.5,-0.5,800.0,-1574.5
3405,09:30:28.564,-3136.5,-1367.0,-1.0,816.5,-1596.5
3407,09:30:28.566,-3130.0,-1368.5,-1.5,751.0,-1598.5
3409,09:30:28.568,-3092.5,-1384.5,-2.5,688.5,-1539.5
3411,09:30:28.570,-3042.5,-1439.5,-3.0,627.5,-1478.5
3413,09:30:28.572,-2993.5,-1507.5,-3.5,571.0,-1454.5
3415,09:30:28.574,-2963.0,-1540.5,-4.0,516.5,-1450.5
3417,09:30:28.576,-2958.5,-1628.0,-5.0,396.5,-1498.0
3419,09:30:28.578,-2979.5,-1664.0,-6.5,257.5,-1566.5
3421,09:30:28.580,-3012.5,-1747.0,-8.5,146.0,-1666.0
3423,09:30:28.582,-3040.0,-1857.0,-10.5,105.0,-1753.0
3425,09:30:28.584,-2929.5,-1942.0,-11.0,105.0,-1823.5
3427,09:30:28.586,-2810.0,-1984.0,-10.5,90.5,-1862.5
3429,09:30:28.588,-2710.5,-1957.0,-9.5,28.0,-1839.0
3431,09:30:28.590,-2541.5,-1845.0,-9.5,-59.0,-1875.5
3433,09:30:28.592,-2397.5,-1778.5,-10.5,-94.0,-1910.0
3435,09:30:28.594,-2263.5,-1731.0,-11.0,-162.5,-1851.0
3437,09:30:28.596,-2083.5,-1850.0,-11.5,-202.5,-1815.0
3439,09:30:28.598,-1942.0,-2008.0,-13.0,-166.5,-1820.0
3441,09:30:28.600,-1831.0,-2015.5,-16.5,-195.5,-1779.5
3443,09:30:28.602,-1649.5,-2013.0,-18.0,-330.0,-1680.5
3445,09:30:28.604,-1493.5,-1996.0,-17.0,-452.0,-1643.5
3447,09:30:28.606,-1283.5,-2035.0,-17.0,-507.5,-1598.5
3449,09:30:28.608,-1113.0,-2082.0,-17.0,-553.0,-1592.0
3451,09:30:28.610,-961.5,-2025.5,-16.5,-563.5,-1604.5
3453,09:30:28.612,-837.0,-2009.0,-15.5,-597.0,-1667.5
3455,09:30:28.614,-685.0,-1977.0,-15.0,-711.5,-1747.5
3457,09:30:28.616,-498.5,-1844.0,-15.0,-862.5,-1713.5
3459,09:30:28.618,-373.0,-1802.5,-14.5,-985.0,-1684.5
3461,09:30:28.620,-248.0,-1822.5,-13.5,-1049.5,-1787.0
3463,09:30:28.622,-109.5,-1834.5,-12.5,-1091.0,-1951.0
3465,09:30:28.624,72.5,-1804.0,-10.5,-1119.5,-2102.0
3467,09:30:28.626,216.5,-1741.0,-8.5,-1174.5,-2104.0
3469,09:30:28.628,303.0,-1747.5,-7.0,-1276.0,-2051.0
3471,09:30:28.630,335.0,-1656.0,-7.0,-1377.0,-2052.5
3473,09:30:28.632,407.0,-1526.0,-8.0,-1431.0,-2077.5
3475,09:30:28.634,492.5,-1377.5,-9.5,-1387.0,-2096.0
3477,09:30:28.636,551.0,-1336.5,-10.0,-1343.0,-2115.0
3479,09:30:28.638,556.5,-1409.0,-10.5,-1333.5,-2168.5
3481,09:30:28.640,446.0,-1526.0,-11.5,-1366.5,-2131.5
3483,09:30:28.642,298.5,-1685.0,-12.5,-1423.0,-2063.5
3485,09:30:28.644,241.0,-1805.5,-13.5,-1616.0,-2029.0
3487,09:30:28.646,127.5,-1846.0,-13.5,-1869.0,-2129.5
3489,09:30:28.648,-6.5,-1855.0,-14.0,-2080.5,-2187.5
3491,09:30:28.650,-38.0,-1850.5,-14.0,-2212.0,-2141.0
3493,09:30:28.652,-35.5,-1850.5,-14.0,-2248.5,-2051.5
3495,09:30:28.654,-58.5,-1785.0,-14.0,-2248.5,-1944.0
3497,09:30:28.656,-106.5,-1637.5,-14.0,-2201.0,-1847.0
3499,09:30:28.658,-318.5,-1529.5,-13.0,-2081.0,-1853.0
3501,09:30:28.660,-557.0,-1484.0,-12.5,-1854.0,-1845.0
3503,09:30:28.662,-653.5,-1389.5,-12.0,-1555.0,-1740.5
3505,09:30:28.664,-686.0,-1213.5,-12.0,-1312.5,-1589.5
3507,09:30:28.666,-741.0,-1004.0,-13.0,-1148.5,-1465.5
3509,09:30:28.668,-757.0,-804.5,-14.5,-993.5,-1382.5
3511,09:30:28.670,-700.5,-685.0,-16.0,-822.5,-1285.5
3513,09:30:28.672,-666.0,-596.5,-16.5,-665.5,-1188.5
3515,09:30:28.674,-699.5,-481.0,-15.5,-502.5,-1128.0
3517,09:30:28.676,-707.0,-425.5,-14.5,-331.5,-1066.0
3519,09:30:28.678,-619.5,-392.0,-14.0,-240.0,-1039.5
3521,09:30:28.680,-555.5,-366.5,-14.0,-168.0,-1112.0
3523,09:30:28.682,-507.5,-356.0,-14.5,-114.0,-1239.0
3525,09:30:28.684,-462.5,-304.0,-14.5,-20.5,-1345.0
3527,09:30:28.686,-476.0,-260.5,-15.5,104.0,-1447.0
3529,09:30:28.688,-413.0,-234.5,-15.5,276.5,-1547.5
3531,09:30:28.690,-397.0,-379.5,-14.5,458.5,-1642.5
3533,09:30:28.692,-309.0,-612.5,-12.5,597.5,-1693.0
3535,09:30:28.694,-172.5,-711.5,-10.0,705.5,-1634.5
3537,09:30:28.696,-69.5,-760.5,-7.5,803.0,-1600.0
3539,09:30:28.698,15.0,-759.0,-5.5,947.0,-1586.0
3541,09:30:28.700,79.0,-732.0,-4.0,1143.5,-1573.5
3543,09:30:28.702,17.0,-777.0,-3.5,1326.0,-1692.0
3545,09:30:28.704,48.5,-855.0,-4.5,1527.0,-1761.0
3547,09:30:28.706,119.5,-1028.0,-6.5,1755.0,-1726.5
3549,09:30:28.708,164.5,-1235.0,-9.5,1954.5,-1631.0
3551,09:30:28.710,107.0,-1469.5,-12.0,1986.0,-1503.0
3553,09:30:28.712,58.0,-1638.5,-15.0,1927.0,-1345.0
3555,09:30:28.714,61.0,-1875.0,-17.5,1952.5,-1069.0
3557,09:30:28.716,93.5,-2133.0,-19.5,2128.5,-690.5
3559,09:30:28.718,79.5,-2271.0,-20.5,2333.5,-407.5
3561,09:30:28.720,65.0,-2234.5,-20.5,2508.5,-359.0
3563,09:30:28.722,58.0,-2119.0,-19.5,2510.0,-290.5
3565,09:30:28.724,56.5,-2045.5,-18.5,2459.0,-197.0
3567,09:30:28.726,-56.0,-2018.0,-18.5,2460.0,-158.0
3569,09:30:28.728,-81.0,-2037.5,-18.0,2541.0,-105.0
3571,09:30:28.730,-57.5,-1860.5,-18.0,2605.0,-254.0
3573,09:30:28.732,-173.0,-1594.0,-18.0,2643.5,-720.0
3575,09:30:28.734,-334.0,-1488.0,-18.0,2690.5,-1124.0
3577,09:30:28.736,-370.0,-1382.0,-17.5,2666.0,-1455.5
3579,09:30:28.738,-342.0,-1220.5,-16.0,2562.5,-1735.0
3581,09:30:28.740,-275.5,-1120.0,-15.5,2599.0,-1925.0
3583,09:30:28.742,-221.5,-1180.5,-14.5,2838.0,-2188.0
3585,09:30:28.744,-201.5,-1243.5,-15.0,3071.5,-2369.5
3587,09:30:28.746,-306.5,-1219.0,-16.0,3144.5,-2423.0
3589,09:30:28.748,-386.0,-1144.5,-16.5,3138.5,-2316.5
3591,09:30:28.750,-468.5,-1075.5,-17.5,3103.0,-2175.5
3593,09:30:28.752,-483.0,-987.5,-18.5,3073.0,-1931.5
3595,09:30:28.754,-497.5,-1036.5,-19.5,3036.5,-1682.5
3597,09:30:28.756,-550.5,-1132.0,-21.0,3122.5,-1530.5
3599,09:30:28.758,-677.0,-1094.0,-22.5,3194.0,-1304.5
3601,09:30:28.760,-688.0,-945.5,-25.0,3130.0,-1050.5
3603,09:30:28.762,-682.5,-1079.5,-28.0,3062.0,-689.5
3605,09:30:28.764,-751.0,-1092.0,-31.0,2990.0,-323.0
3607,09:30:28.766,-835.5,-1003.0,-33.5,3006.5,-139.0
3609,09:30:28.768,-834.0,-899.0,-35.0,2991.0,-5.0
3611,09:30:28.770,-829.5,-890.0,-36.5,2972.5,63.5
3613,09:30:28.772,-782.0,-855.5,-38.0,3139.5,30.0
3615,09:30:28.774,-721.5,-723.0,-38.0,3301.5,-3.5
3617,09:30:28.776,-641.5,-547.0,-37.5,3375.5,2.0
3619,09:30:28.778,-550.0,-389.5,-36.0,3323.5,-69.0
3621,09:30:28.780,-443.5,-421.0,-35.5,3241.0,-188.5
3623,09:30:28.782,-331.5,-594.5,-35.0,3149.5,-73.5
3625,09:30:28.784,-227.5,-597.0,-34.5,3083.0,-63.5
3627,09:30:28.786,-124.5,-433.0,-34.0,3068.0,-275.5
3629,09:30:28.788,-123.0,-517.5,-33.5,3095.0,-553.0
3631,09:30:28.790,-339.5,-871.5,-33.0,3155.5,-889.0
3633,09:30:28.792,-573.5,-1209.5,-33.5,3185.5,-1155.5
3635,09:30:28.794,-705.0,-1366.0,-34.5,3045.0,-1268.5
3637,09:30:28.796,-770.5,-1390.5,-36.5,2721.5,-1315.5
3639,09:30:28.798,-878.5,-1445.0,-39.0,2382.5,-1415.5
3641,09:30:28.800,-1012.0,-1503.5,-41.0,2052.5,-1506.0
3643,09:30:28.802,-1072.5,-1475.5,-42.0,1741.0,-1412.5
3645,09:30:28.804,-1057.5,-1550.0,-42.5,1479.0,-1133.5
3647,09:30:28.806,-1043.5,-1584.5,-41.0,1262.5,-764.5
3649,09:30:28.808,-1107.0,-1523.5,-39.0,1109.0,-534.5
3651,09:30:28.810,-1088.5,-1584.5,-37.5,1009.0,-246.5
3653,09:30:28.812,-979.5,-1662.0,-37.5,897.5,168.0
3655,09:30:28.814,-862.5,-1474.0,-38.5,811.0,545.5
3657,09:30:28.816,-728.0,-1029.0,-40.0,868.5,970.5
3659,09:30:28.818,-718.5,-708.5,-40.5,1012.5,1364.5
3661,09:30:28.820,-788.0,-511.0,-41.5,1101.0,1699.0
3663,09:30:28.822,-801.5,-305.0,-43.5,1118.5,2014.0
3665,09:30:28.824,-802.0,-80.5,-46.5,1119.5,2340.0
3667,09:30:28.826,-792.5,123.5,-48.5,1200.5,2708.5
3669,09:30:28.828,-833.0,345.5,-50.0,1190.5,2827.0
3671,09:30:28.830,-876.5,559.0,-50.5,1240.5,2768.0
3673,09:30:28.832,-903.0,624.0,-50.5,1441.0,2683.0
3675,09:30:28.834,-958.5,715.5,-50.0,1480.5,2605.5
3677,09:30:28.836,-1009.0,915.0,-50.0,1387.5,2632.5
3679,09:30:28.838,-1146.5,965.0,-49.5,1183.0,2693.0
3681,09:30:28.840,-1306.0,746.5,-48.0,1013.5,2675.0
3683,09:30:28.842,-1371.5,749.5,-46.0,950.0,2613.5
3685,09:30:28.844,-1280.0,1061.5,-44.0,899.0,2523.5
3687,09:30:28.846,-1256.0,1143.5,-43.0,844.0,2416.0
3689,09:30:28.848,-1197.0,1004.0,-42.5,793.5,2567.5
3691,09:30:28.850,-1066.5,1126.0,-41.0,692.5,2854.5
3693,09:30:28.852,-1128.5,1014.5,-38.0,611.0,2816.0
3695,09:30:28.854,-1272.5,618.0,-34.0,372.5,2454.0
3697,09:30:28.856,-1665.5,-50.5,-31.0,-54.5,1600.5
3699,09:30:28.858,-2170.5,-922.5,-29.0,-263.5,491.0
3701,09:30:28.860,-2619.0,-1813.5,-28.5,-202.0,-784.5
3703,09:30:28.862,-2615.0,-2652.0,-28.5,94.0,-2215.5
3705,09:30:28.864,-2682.5,-2716.0,-30.0,522.5,-3352.0
3707,09:30:28.866,-2784.5,-2801.5,-31.5,790.5,-3463.5
3709,09:30:28.868,-2831.0,-2940.0,-34.0,1112.5,-3750.5
3711,09:30:28.870,-2565.5,-3072.5,-36.5,1313.5,-4119.0
3713,09:30:28.872,-2008.5,-3146.0,-40.0,1468.0,-4418.0
3715,09:30:28.874,-1497.5,-3134.5,-44.5,1619.5,-4544.0
3717,09:30:28.876,-1117.5,-3044.5,-49.0,1856.5,-4452.0
3719,09:30:28.878,-852.0,-2907.5,-53.0,2050.0,-4187.0
3721,09:30:28.880,-230.5,-2781.5,-56.0,2015.0,-3857.0
3723,09:30:28.882,-108.5,-2705.5,-57.5,1650.0,-3585.5
3725,09:30:28.884,-35.0,-2706.0,-57.5,1029.5,-3468.0
3727,09:30:28.886,-79.0,-2776.0,-57.5,383.0,-3535.5
3729,09:30:28.888,-304.0,-2883.5,-56.5,-285.5,-3750.0
3731,09:30:28.890,-554.5,-2985.5,-53.5,-829.5,-4018.5
3733,09:30:28.892,-835.5,-3038.5,-50.5,-1356.5,-4235.0
3735,09:30:28.894,-1113.0,-3023.0,-48.0,-1792.0,-4319.5
3737,09:30:28.896,-1340.0,-2948.0,-44.5,-2120.5,-4249.0
3739,09:30:28.898,-1554.5,-2842.0,-42.0,-2424.5,-4052.5
3741,09:30:28.900,-1753.5,-2743.0,-39.0,-2649.5,-3810.5
3743,09:30:28.902,-1851.0,-2685.5,-36.5,-2854.5,-3615.5
3745,09:30:28.904,-1972.5,-2687.5,-35.0,-3058.5,-3531.5
3747,09:30:28.906,-2190.5,-2742.0,-33.0,-3349.5,-3580.5
3749,09:30:28.908,-2394.5,-2822.5,-31.0,-3706.0,-3731.0
3751,09:30:28.910,-2518.0,-2896.0,-30.0,-3864.0,-3917.0
3753,09:30:28.912,-2629.0,-2931.5,-29.5,-3820.0,-4065.0
3755,09:30:28.914,-2731.5,-2918.0,-29.5,-3788.0,-4116.5
3757,09:30:28.916,-2747.0,-2857.5,-30.5,-3759.0,-4060.5
3759,09:30:28.918,-2721.0,-2776.5,-31.5,-3741.0,-3924.0
3761,09:30:28.920,-2696.5,-2705.0,-32.5,-3738.0,-3760.5
3763,09:30:28.922,-2675.0,-2663.0,-33.5,-3746.0,-3629.5
3765,09:30:28.924,-2664.0,-2663.5,-34.5,-3756.5,-3575.0
3767,09:30:28.926,-2665.5,-2704.5,-36.0,-3766.0,-3607.5
3769,09:30:28.928,-2672.0,-2760.5,-38.5,-3765.5,-3703.0
3771,09:30:28.930,-2684.0,-2811.0,-42.0,-3753.0,-3821.0
3773,09:30:28.932,-2690.5,-2832.0,-46.0,-3736.5,-3911.0
3775,09:30:28.934,-2689.0,-2818.0,-49.5,-3717.0,-3938.5
3777,09:30:28.936,-2679.5,-2773.5,-52.5,-3703.0,-3899.5
3779,09:30:28.938,-2663.5,-2715.0,-55.5,-3695.0,-3809.0
3781,09:30:28.940,-2645.0,-2662.0,-57.5,-3692.0,-3705.0
3783,09:30:28.942,-2631.5,-2634.5,-59.0,-3690.5,-3624.5
3785,09:30:28.944,-2620.5,-2636.0,-60.0,-3687.0,-3591.0
3787,09:30:28.946,-2617.5,-2662.0,-60.5,-3681.5,-3610.0
3789,09:30:28.948,-2618.0,-2697.5,-60.5,-3673.0,-3667.0
3791,09:30:28.950,-2623.5,-2728.0,-58.5,-3663.0,-3731.5
3793,09:30:28.952,-2624.0,-2738.5,-55.5,-3652.0,-3776.5
3795,09:30:28.954,-2621.0,-2725.0,-52.5,-3645.5,-3784.5
3797,09:30:28.956,-2614.0,-2689.5,-49.0,-3641.0,-3755.5
3799,09:30:28.958,-2605.5,-2653.5,-45.5,-3642.0,-3705.5
3801,09:30:28.960,-2594.0,-2619.0,-42.0,-3640.0,-3649.5
3803,09:30:28.962,-2583.5,-2581.0,-38.5,-3634.0,-3608.5
3805,09:30:28.964,-2575.0,-2324.5,-34.5,-3623.5,-3591.0
3807,09:30:28.966,-2569.5,-1837.0,-31.5,-3607.0,-3597.5
3809,09:30:28.968,-2565.0,-1910.0,-28.5,-3591.5,-3622.0
3811,09:30:28.970,-2562.0,-1933.5,-27.0,-3580.0,-3644.5
3813,09:30:28.972,-2561.0,-1901.0,-26.5,-3574.0,-3656.0
3815,09:30:28.974,-2556.5,-1835.0,-27.5,-3574.0,-3652.0
3817,09:30:28.976,-2553.0,-1755.0,-28.5,-3576.0,-3634.0
3819,09:30:28.978,-2546.0,-1692.5,-29.5,-3578.5,-3608.5
3821,09:30:28.980,-2540.0,-1675.0,-30.5,-3577.5,-3585.5
3823,09:30:28.982,-2531.0,-1696.0,-31.5,-3566.5,-3571.5
3825,09:30:28.984,-2523.5,-1748.5,-31.5,-3553.5,-3567.5
3827,09:30:28.986,-2515.0,-1809.0,-30.5,-3531.0,-3568.5
3829,09:30:28.988,-2509.0,-1450.5,-29.5,-3502.0,-3570.0
3831,09:30:28.990,-2504.5,3.0,-29.5,-3490.0,-3563.0
3833,09:30:28.992,-2500.5,-239.0,-30.0,-3487.0,-3554.0
3835,09:30:28.994,-2497.0,-189.5,-30.5,-3490.5,-3540.0
3837,09:30:28.996,-2495.0,-60.5,-31.0,-3498.5,-3529.5
3839,09:30:28.998,-2492.0,108.0,-31.0,-3502.0,-3523.0
3841,09:30:29,-2488.5,252.5,-31.5,-3498.5,-3522.0
3843,09:30:29.002,-2481.5,319.0,-31.5,-3486.0,-3526.0
3845,09:30:29.004,-2474.0,288.5,-32.0,-3466.0,-3527.0
3847,09:30:29.006,-2464.5,175.5,-32.5,-3444.0,-3521.5
3849,09:30:29.008,-2455.5,30.5,-33.5,-3425.5,-3507.5
3851,09:30:29.010,-2448.0,177.5,-34.0,-3413.5,-3482.5
3853,09:30:29.012,-2445.0,527.5,-34.0,-1689.5,-3462.5
3855,09:30:29.014,-2440.0,451.5,-34.0,3260.0,-3451.5
3857,09:30:29.016,-2436.5,554.0,-34.5,2425.5,-3441.5
3859,09:30:29.018,-2435.0,709.0,-34.5,2370.5,-3447.5
3861,09:30:29.020,-2433.5,862.0,-34.5,2656.0,-3462.5
3863,09:30:29.022,-2431.5,957.0,-35.0,3194.0,-3166.5
3865,09:30:29.024,-2423.0,967.5,-35.5,3809.5,-2556.5
3867,09:30:29.026,-2416.0,1722.0,-35.5,4117.5,-2440.0
3869,09:30:29.028,-2405.0,2259.0,-35.5,4162.5,-1997.0
3871,09:30:29.030,-2396.5,1925.5,-36.5,3905.0,-2020.0
3873,09:30:29.032,-2388.5,1873.0,-37.5,3471.0,-1562.5
3875,09:30:29.034,-2385.0,2452.5,-38.0,3027.0,-748.5
3877,09:30:29.036,-2382.5,2919.5,-37.5,2727.0,-492.0
3879,09:30:29.038,-2381.0,3037.5,-36.5,2679.5,-518.5
3881,09:30:29.040,-2381.5,3746.5,-35.5,2882.5,-509.0
3883,09:30:29.042,-2270.5,4202.0,-34.0,2739.5,722.0
3885,09:30:29.044,-2219.0,4166.5,-32.5,2592.0,2175.5
3887,09:30:29.046,-1627.0,4204.5,-30.5,2870.0,2520.5
3889,09:30:29.048,-1128.5,4179.5,-27.5,2779.5,2908.5
3891,09:30:29.050,-1085.5,4087.5,-24.0,2395.0,3085.5
3893,09:30:29.052,-252.0,4062.5,-21.5,1849.0,3287.5
3895,09:30:29.054,387.0,4104.0,-19.5,1259.5,3541.5
3897,09:30:29.056,805.5,4191.0,-18.5,858.5,3743.0
3899,09:30:29.058,1153.5,4283.5,-17.0,683.5,3813.5
3901,09:30:29.060,1588.0,4345.5,-17.0,717.0,3731.0
3903,09:30:29.062,1987.0,4353.0,-18.5,964.0,3531.0
3905,09:30:29.064,2335.0,4304.5,-20.0,1247.5,3296.0
3907,09:30:29.066,2605.5,4221.0,-21.5,1323.5,3110.5
3909,09:30:29.068,2830.5,4135.0,-24.0,1250.0,3042.0
3911,09:30:29.070,3095.0,4073.5,-26.5,1081.0,3103.5
3913,09:30:29.072,3349.5,4057.0,-29.5,796.0,3266.0
3915,09:30:29.074,3533.0,4083.5,-33.0,496.0,3457.0
3917,09:30:29.076,3700.0,4136.0,-35.5,339.0,3606.5
3919,09:30:29.078,3756.5,4187.5,-37.0,256.0,3652.5
3921,09:30:29.080,3801.0,4217.5,-39.5,285.5,3582.5
3923,09:30:29.082,3938.5,4215.5,-42.0,500.5,3429.0
3925,09:30:29.084,4292.5,4181.0,-45.0,722.0,3251.0
3927,09:30:29.086,4521.0,4129.0,-47.5,902.5,3113.5
3929,09:30:29.088,4449.5,4076.0,-48.5,852.5,3063.5
3931,09:30:29.090,4376.0,4042.5,-47.5,711.5,3112.5
3933,09:30:29.092,4334.0,4035.5,-45.5,505.0,3233.0
3935,09:30:29.094,4329.0,4048.5,-43.5,336.5,3372.0
3937,09:30:29.096,4361.0,4074.0,-41.5,210.5,3475.0
3939,09:30:29.098,4411.0,4096.0,-40.5,253.5,3499.5
3941,09:30:29.100,4459.5,4105.5,-40.0,304.0,3447.0
3943,09:30:29.102,4479.5,4096.5,-40.0,427.0,3332.0
3945,09:30:29.104,4469.5,4035.0,-40.0,460.0,3207.0
3947,09:30:29.106,4424.5,3821.5,-42.0,428.5,3110.0
3949,09:30:29.108,4367.5,3791.0,-44.5,388.0,3077.0
3951,09:30:29.110,4313.0,3890.5,-47.5,327.0,3113.0
3953,09:30:29.112,4284.5,3904.0,-50.0,111.0,3197.5
3955,09:30:29.114,4277.5,3856.5,-51.5,-3.0,3289.0
3957,09:30:29.116,4297.5,3775.5,-52.0,-124.5,3355.0
3959,09:30:29.118,4333.0,3474.0,-51.5,-253.0,3366.5
3961,09:30:29.120,4361.0,3071.5,-51.0,-252.5,3324.5
3963,09:30:29.122,4372.5,2495.0,-51.0,-213.5,3245.5
3965,09:30:29.124,4360.0,2027.5,-51.0,-150.0,3159.5
3967,09:30:29.126,4327.5,1718.5,-51.0,-70.0,3097.5
3969,09:30:29.128,4286.5,1534.0,-52.5,-31.5,3077.5
3971,09:30:29.130,4248.0,1467.0,-53.5,-15.5,3102.0
3973,09:30:29.132,4224.5,1561.0,-56.0,-33.5,3152.5
3975,09:30:29.134,4221.5,1596.0,-58.5,-58.5,3207.0
3977,09:30:29.136,4233.5,1529.5,-61.0,-59.0,3245.5
3979,09:30:29.138,4252.5,1482.0,-63.0,-85.5,3246.5
3981,09:30:29.140,4267.5,1520.0,-65.0,-43.0,3215.0
3983,09:30:29.142,4269.0,1722.0,-66.0,57.0,3164.0
3985,09:30:29.144,4258.0,2027.5,-66.5,168.0,3110.5
3987,09:30:29.146,4232.5,2204.0,-66.0,250.0,3074.5
3989,09:30:29.148,4204.5,2237.5,-66.0,318.0,3064.5
3991,09:30:29.150,4181.0,2150.5,-66.5,365.5,3080.5
3993,09:30:29.152,4165.5,2006.0,-66.0,374.5,3106.5
3995,09:30:29.154,4160.0,1925.5,-65.0,423.0,3133.0
3997,09:30:29.156,4166.0,1907.5,-64.5,431.0,3146.0
3999,09:30:29.158,4171.5,1978.0,-63.5,437.0,3140.5
4001,09:30:29.160,4174.5,2102.0,-62.0,488.0,3116.5
4003,09:30:29.162,4171.0,2191.0,-60.5,499.5,3084.0
4005,09:30:29.164,4161.5,2288.0,-59.0,498.5,3060.0
4007,09:30:29.166,4143.0,2356.0,-58.0,520.0,3042.0
4009,09:30:29.168,4124.5,2320.5,-57.5,524.5,3037.0
4011,09:30:29.170,4109.5,2228.0,-57.0,524.5,3042.0
4013,09:30:29.172,4098.0,2138.5,-57.0,545.0,3053.0
4015,09:30:29.174,4094.5,2073.5,-56.5,580.5,3058.5
4017,09:30:29.176,4092.0,1983.5,-57.0,604.0,3055.0
4019,09:30:29.178,4091.0,1934.0,-58.0,589.5,3045.5
4021,09:30:29.180,4086.0,1927.0,-59.0,560.0,3030.5
4023,09:30:29.182,4080.0,1927.5,-61.0,566.0,3015.5
4025,09:30:29.184,4069.5,1867.0,-63.5,565.5,3002.5
4027,09:30:29.186,4055.5,1860.0,-66.5,563.0,2999.0
4029,09:30:29.188,4045.5,1846.5,-69.5,569.5,3001.0
4031,09:30:29.190,4034.5,1793.5,-72.0,580.5,3000.5
4033,09:30:29.192,4029.5,1773.5,-74.0,634.5,2996.0
4035,09:30:29.194,4023.0,1663.5,-77.0,623.5,2987.5
4037,09:30:29.196,4019.0,1599.0,-80.5,586.5,2975.5
4039,09:30:29.198,4010.0,1611.0,-82.5,574.5,2961.5
4041,09:30:29.200,4001.5,1641.0,-84.5,584.5,2951.5
4043,09:30:29.202,3991.5,1676.5,-86.5,572.5,2946.0
4045,09:30:29.204,3980.5,1712.0,-89.0,533.0,2948.5
4047,09:30:29.206,3972.0,1695.0,-91.5,461.0,2953.0
4049,09:30:29.208,3965.5,1668.0,-94.0,447.5,2953.5
4051,09:30:29.210,3960.5,1594.5,-97.0,485.0,2951.5
4053,09:30:29.212,3957.0,1474.5,-99.0,494.0,2938.5
4055,09:30:29.214,3952.0,1394.0,-100.0,471.0,2915.0
4057,09:30:29.216,3942.0,1299.5,-101.0,460.5,2787.0
4059,09:30:29.218,3932.5,1194.5,-101.5,386.5,2668.5
4061,09:30:29.220,3919.5,1130.0,-102.0,284.0,2583.5
4063,09:30:29.222,3907.0,1091.0,-103.0,198.0,2489.5
4065,09:30:29.224,3898.5,1086.5,-105.0,134.5,2396.0
4067,09:30:29.226,3891.0,1035.0,-106.5,36.0,2285.0
4069,09:30:29.228,3889.5,1017.0,-106.5,-13.5,2171.5
4071,09:30:29.230,3886.0,1007.5,-106.0,-25.0,2059.5
4073,09:30:29.232,3884.0,982.0,-106.0,-57.0,1905.5
4075,09:30:29.234,3876.5,994.5,-106.0,-42.0,1804.5
4077,09:30:29.236,3867.5,987.5,-105.0,-34.5,1730.0
4079,09:30:29.238,3853.5,860.5,-103.0,-148.5,1595.5
4081,09:30:29.240,3839.5,785.5,-101.0,-271.0,1504.0
4083,09:30:29.242,3826.5,760.5,-99.0,-386.0,1448.5
4085,09:30:29.244,3817.0,726.5,-97.0,-517.5,1407.5
4087,09:30:29.246,3812.5,698.5,-95.0,-602.5,1386.5
4089,09:30:29.248,3811.0,665.5,-92.5,-671.5,1352.0
4091,09:30:29.250,3810.0,615.0,-89.0,-727.5,1304.5
4093,09:30:29.252,3807.0,549.0,-85.5,-749.5,1227.0
4095,09:30:29.254,3801.0,532.0,-82.5,-748.5,1185.0
4097,09:30:29.256,3792.0,544.0,-79.0,-766.5,1162.5
4099,09:30:29.258,3778.0,489.0,-76.0,-756.5,1125.0
4101,09:30:29.260,3762.5,404.5,-74.0,-783.5,1061.0
4103,09:30:29.262,3732.5,371.5,-72.0,-816.0,1050.5
4105,09:30:29.264,3675.5,332.0,-69.5,-846.5,1036.0
4107,09:30:29.266,3609.5,285.0,-65.5,-908.5,997.0
4109,09:30:29.268,3565.0,260.0,-60.5,-981.5,944.5
4111,09:30:29.270,3532.0,235.0,-55.0,-1023.0,887.0
4113,09:30:29.272,3439.5,154.5,-49.0,-1070.5,785.5
4115,09:30:29.274,3409.5,115.0,-44.0,-1090.0,718.5
4117,09:30:29.276,3368.5,70.0,-38.5,-1087.0,708.0
4119,09:30:29.278,3328.0,18.5,-33.5,-1165.0,668.5
4121,09:30:29.280,3257.5,-47.5,-28.0,-1226.0,657.5
4123,09:30:29.282,3141.5,-122.0,-21.5,-1278.5,635.5
4125,09:30:29.284,3071.0,-144.0,-14.5,-1310.5,652.5
4127,09:30:29.286,2966.5,-168.0,-7.5,-1369.5,666.0
4129,09:30:29.288,2907.5,-199.5,0.0,-1433.0,633.5
4131,09:30:29.290,2923.5,-193.5,6.5,-1444.5,608.5
4133,09:30:29.292,2948.5,-157.5,12.5,-1391.0,593.0
4135,09:30:29.294,2922.5,-170.0,18.5,-1340.5,553.5
4137,09:30:29.296,2879.0,-152.0,23.5,-1285.0,525.5
4139,09:30:29.298,2938.5,-104.0,28.5,-1250.0,472.0
4141,09:30:29.300,2806.5,-95.5,33.5,-1273.0,387.0
4143,09:30:29.302,2588.5,-84.5,39.0,-1316.5,356.5
4145,09:30:29.304,2413.0,-94.5,45.0,-1377.0,335.5
4147,09:30:29.306,2276.5,-113.5,51.0,-1439.5,295.5
4149,09:30:29.308,2225.0,-77.0,57.0,-1452.0,304.5
4151,09:30:29.310,2130.5,-8.5,63.5,-1473.0,335.0
4153,09:30:29.312,1968.0,6.5,69.5,-1506.5,351.0
4155,09:30:29.314,1753.0,-36.5,75.5,-1549.5,378.5
4157,09:30:29.316,1572.0,-47.5,82.0,-1550.0,407.5
4159,09:30:29.318,1439.0,-48.0,89.5,-1544.0,474.5
4161,09:30:29.320,1367.0,-32.0,98.0,-1538.0,583.0
4163,09:30:29.322,1315.5,9.5,106.0,-1566.0,648.5
4165,09:30:29.324,1288.5,31.5,113.0,-1625.5,726.5
4167,09:30:29.326,1303.5,88.0,118.5,-1635.0,871.0
4169,09:30:29.328,1242.5,134.5,125.5,-1612.5,995.5
4171,09:30:29.330,1098.5,139.0,133.5,-1606.0,1046.5
4173,09:30:29.332,1021.5,239.5,141.0,-1521.0,1157.5
4175,09:30:29.334,953.0,356.0,147.0,-1405.5,1218.0
4177,09:30:29.336,940.5,437.5,152.5,-1305.0,1245.5
4179,09:30:29.338,979.5,505.0,158.0,-1239.0,1288.0
4181,09:30:29.340,987.5,552.0,163.5,-1191.5,1351.0
4183,09:30:29.342,983.5,604.0,169.0,-1114.0,1420.5
4185,09:30:29.344,970.0,635.0,175.0,-1037.0,1470.5
4187,09:30:29.346,1086.5,746.0,183.0,-927.5,1576.0
4189,09:30:29.348,1265.5,834.5,190.0,-797.5,1629.5
4191,09:30:29.350,1341.0,915.0,196.5,-661.5,1649.0
4193,09:30:29.352,1194.0,866.5,202.0,-577.0,1570.5
4195,09:30:29.354,928.5,682.5,207.5,-595.0,1385.5
4197,09:30:29.356,700.0,601.5,215.5,-667.5,1244.5
4199,09:30:29.358,541.0,514.5,225.0,-827.0,1130.0
4201,09:30:29.360,412.5,355.0,232.5,-960.0,993.0
4203,09:30:29.362,322.5,269.0,239.5,-1049.0,902.5
4205,09:30:29.364,178.5,187.5,245.5,-1156.5,764.5
4207,09:30:29.366,116.0,185.5,251.5,-1316.0,650.0
4209,09:30:29.368,159.0,294.5,258.5,-1399.0,645.0
4211,09:30:29.370,170.0,377.0,265.0,-1432.0,664.0
4213,09:30:29.372,143.0,418.0,271.0,-1487.0,642.5
4215,09:30:29.374,157.5,488.5,275.5,-1453.0,607.0
4217,09:30:29.376,220.0,541.5,280.0,-1382.5,615.5
4219,09:30:29.378,326.5,627.5,285.5,-1295.0,690.0
4221,09:30:29.380,468.5,770.0,291.5,-1118.5,823.5
4223,09:30:29.382,657.5,943.5,296.5,-887.5,983.5
4225,09:30:29.384,828.0,1052.0,301.0,-652.0,1055.5
4227,09:30:29.386,935.0,1060.0,306.0,-494.5,1048.5
4229,09:30:29.388,1064.5,1074.5,309.0,-369.0,1080.0
4231,09:30:29.390,1206.5,1128.0,310.5,-256.5,1138.5
4233,09:30:29.392,1326.5,1184.5,313.0,-129.5,1198.0
4235,09:30:29.394,1483.0,1241.0,316.5,8.5,1245.0
4237,09:30:29.396,1657.5,1350.0,320.5,164.5,1318.5
4239,09:30:29.398,1746.5,1432.5,324.5,317.0,1321.5
4241,09:30:29.400,1745.5,1439.0,328.5,398.0,1168.0
4243,09:30:29.402,1784.5,1504.0,331.5,467.0,983.0
4245,09:30:29.404,1843.5,1630.0,334.5,511.5,849.0
4247,09:30:29.406,1843.0,1664.0,338.0,485.0,751.0
4249,09:30:29.408,1840.5,1644.0,340.5,434.0,784.0
4251,09:30:29.410,1845.0,1622.5,341.5,387.0,916.5
4253,09:30:29.412,1865.5,1643.5,342.5,384.0,1069.5
4255,09:30:29.414,1951.0,1719.0,344.5,380.5,1212.5
4257,09:30:29.416,2068.5,1863.5,345.5,371.5,1346.5
4259,09:30:29.418,2127.5,1962.5,345.5,336.0,1474.0
4261,09:30:29.420,2148.5,1975.5,346.0,268.5,1601.0
4263,09:30:29.422,2233.5,1953.0,347.0,235.5,1791.0
4265,09:30:29.424,2269.5,1883.0,348.5,208.0,1982.0
4267,09:30:29.426,2276.0,1837.0,351.5,195.0,2148.5
4269,09:30:29.428,2332.0,1835.0,354.5,226.0,2282.5
4271,09:30:29.430,2399.0,1843.5,358.0,238.0,2316.0
4273,09:30:29.432,2462.5,1959.5,360.0,257.0,2317.5
4275,09:30:29.434,2520.0,1997.5,360.5,258.0,2311.5
4277,09:30:29.436,2650.0,2055.5,360.5,260.5,2390.5
4279,09:30:29.438,2713.0,2057.0,360.5,270.5,2494.5
4281,09:30:29.440,2733.5,2045.5,361.0,271.5,2589.5
4283,09:30:29.442,2773.0,2081.0,360.5,301.5,2660.0
4285,09:30:29.444,2765.0,2075.0,360.0,305.0,2694.5
4287,09:30:29.446,2743.5,2153.5,360.0,285.0,2688.0
4289,09:30:29.448,2710.0,2192.0,359.5,291.0,2639.0
4291,09:30:29.450,2701.0,2209.5,359.5,319.5,2570.0
4293,09:30:29.452,2634.5,2240.5,360.0,339.5,2503.5
4295,09:30:29.454,2628.0,2236.0,359.5,340.5,2461.0
4297,09:30:29.456,2577.5,2237.5,357.5,344.5,2458.0
4299,09:30:29.458,2519.0,2242.5,355.5,366.0,2485.5
4301,09:30:29.460,2431.5,2283.5,353.0,385.5,2532.0
4303,09:30:29.462,2288.0,2279.5,352.0,396.5,2576.0
4305,09:30:29.464,2201.0,2277.0,351.0,432.5,2599.5
4307,09:30:29.466,2040.5,2244.0,349.5,398.0,2595.5
4309,09:30:29.468,1852.5,2281.0,348.0,393.5,2562.5
4311,09:30:29.470,1658.0,2353.0,347.5,432.5,2515.0
4313,09:30:29.472,1478.0,2383.0,348.0,458.5,2468.5
4315,09:30:29.474,1268.5,2367.0,348.5,463.5,2440.5
4317,09:30:29.476,1066.5,2334.5,350.0,471.5,2433.0
4319,09:30:29.478,937.0,2328.0,352.5,498.5,2447.0
4321,09:30:29.480,824.0,2362.0,354.0,527.5,2475.0
4323,09:30:29.482,697.0,2369.0,353.5,535.0,2499.0
4325,09:30:29.484,611.5,2358.0,353.5,542.0,2511.5
4327,09:30:29.486,546.5,2370.0,352.5,560.0,2508.0
4329,09:30:29.488,459.0,2365.5,351.0,535.5,2490.0
4331,09:30:29.490,402.5,2347.5,349.0,534.5,2460.5
4333,09:30:29.492,388.0,2366.5,346.5,561.5,2430.0
4335,09:30:29.494,379.0,2394.5,344.0,603.0,2410.0
4337,09:30:29.496,345.0,2374.5,342.5,551.5,2402.5
4339,09:30:29.498,350.5,2370.5,342.5,533.5,2406.0
4341,09:30:29.500,346.5,2394.0,342.5,526.5,2416.5
4343,09:30:29.502,322.5,2414.5,341.0,504.5,2429.0
4345,09:30:29.504,335.0,2415.0,339.5,470.0,2433.0
4347,09:30:29.506,357.5,2405.0,339.5,452.0,2431.0
4349,09:30:29.508,346.5,2388.5,340.0,418.5,2421.5
4351,09:30:29.510,361.5,2402.0,341.5,407.0,2404.5
4353,09:30:29.512,438.5,2415.5,342.5,398.0,2387.5
4355,09:30:29.514,512.0,2380.5,341.5,358.0,2372.5
4357,09:30:29.516,577.0,2341.5,339.5,307.0,2365.0
4359,09:30:29.518,657.5,2337.5,338.0,264.0,2361.5
4361,09:30:29.520,747.5,2385.5,336.0,247.0,2362.0
4363,09:30:29.522,801.0,2420.5,335.0,252.5,2363.0
4365,09:30:29.524,790.0,2397.0,335.5,213.5,2360.0
4367,09:30:29.526,819.5,2410.5,336.0,199.5,2359.5
4369,09:30:29.528,878.0,2439.0,336.5,187.5,2355.0
4371,09:30:29.530,940.5,2496.0,336.0,154.0,2347.0
4373,09:30:29.532,1009.0,2524.0,335.0,90.0,2341.0
4375,09:30:29.534,1046.0,2551.0,334.0,6.5,2332.0
4377,09:30:29.536,1099.0,2601.0,333.5,-23.5,2322.5
4379,09:30:29.538,1127.5,2634.5,333.0,-66.0,2315.5
4381,09:30:29.540,1171.5,2707.0,332.5,-133.5,2306.5
4383,09:30:29.542,1188.0,2746.5,332.0,-246.0,2301.5
4385,09:30:29.544,1174.5,2770.5,331.0,-385.0,2298.0
4387,09:30:29.546,1158.0,2794.0,330.0,-444.0,2293.5
4389,09:30:29.548,1174.0,2786.5,330.0,-426.0,2293.0
4391,09:30:29.550,1269.0,2895.0,330.5,-399.0,2292.5
4393,09:30:29.552,1202.0,2895.5,330.5,-496.0,2290.5
4395,09:30:29.554,1095.0,2854.0,330.5,-574.0,2286.0
4397,09:30:29.556,1053.5,2821.0,331.5,-590.5,2278.0
4399,09:30:29.558,979.0,2806.5,331.0,-581.0,2266.5
4401,09:30:29.560,900.5,2804.5,327.5,-590.0,2254.0
4403,09:30:29.562,899.0,2862.5,323.5,-573.5,2242.5
4405,09:30:29.564,904.5,2846.5,320.5,-581.0,2234.5
4407,09:30:29.566,868.0,2808.5,318.0,-582.5,2232.5
4409,09:30:29.568,819.0,2742.5,316.5,-590.5,2233.5
4411,09:30:29.570,802.0,2715.0,315.5,-589.0,2236.5
4413,09:30:29.572,778.0,2734.5,314.0,-560.0,2237.0
4415,09:30:29.574,757.5,2722.5,312.0,-554.0,2237.5
4417,09:30:29.576,745.0,2716.0,310.0,-525.5,2228.5
4419,09:30:29.578,722.5,2706.5,309.0,-490.0,2216.5
4421,09:30:29.580,690.0,2640.5,306.5,-477.5,2201.5
4423,09:30:29.582,632.0,2572.0,303.0,-471.0,2187.5
4425,09:30:29.584,568.5,2549.0,299.5,-380.0,2177.0
4427,09:30:29.586,489.0,2525.5,296.5,-317.5,2174.5
4429,09:30:29.588,485.0,2506.5,292.5,-307.0,2176.0
4431,09:30:29.590,513.0,2435.5,290.0,-302.0,2181.5
4433,09:30:29.592,488.5,2432.5,288.0,-226.0,2185.5
4435,09:30:29.594,373.0,2399.5,285.5,-172.5,2185.0
4437,09:30:29.596,254.5,2390.0,282.5,-125.0,2177.5
4439,09:30:29.598,151.0,2371.5,280.0,-78.5,2165.5
4441,09:30:29.600,98.0,2335.5,278.0,-27.0,2149.0
4443,09:30:29.602,1.5,2253.5,276.5,6.0,2134.5
4445,09:30:29.604,-124.5,2185.0,275.0,12.5,2123.5
4447,09:30:29.606,-235.5,2130.5,274.0,44.5,2122.0
4449,09:30:29.608,-253.5,2130.5,273.0,61.5,2121.5
4451,09:30:29.610,-200.5,2153.5,272.0,104.0,2127.0
4453,09:30:29.612,-271.5,2173.0,269.5,147.0,2133.0
4455,09:30:29.614,-362.0,2172.0,266.0,179.5,2126.0
4457,09:30:29.616,-419.0,2173.0,262.5,231.0,2096.0
4459,09:30:29.618,-453.5,2190.5,260.0,256.0,2061.5
4461,09:30:29.620,-533.5,2208.0,258.5,265.5,2045.5
4463,09:30:29.622,-599.5,2246.5,256.0,308.5,2057.0
4465,09:30:29.624,-656.0,2243.0,254.0,342.5,2076.5
4467,09:30:29.626,-714.0,2212.0,252.5,348.5,2060.5
4469,09:30:29.628,-731.0,2274.0,250.5,396.0,2058.5
4471,09:30:29.630,-831.0,2288.5,246.5,387.5,2066.0
4473,09:30:29.632,-982.0,2216.0,241.5,306.5,2073.5
4475,09:30:29.634,-1113.0,2156.0,237.0,187.5,2080.5
4477,09:30:29.636,-1158.5,2140.0,234.0,79.0,2081.0
4479,09:30:29.638,-1216.5,2121.0,232.0,26.5,2073.0
4481,09:30:29.640,-1346.0,2088.0,231.0,-10.5,2058.5
4483,09:30:29.642,-1457.5,2108.5,229.0,12.5,2039.5
4485,09:30:29.644,-1544.5,2179.5,226.0,91.0,2022.5
4487,09:30:29.646,-1695.0,2245.0,222.5,62.5,2014.5
4489,09:30:29.648,-1854.0,2326.5,220.5,-91.5,2012.0
4491,09:30:29.650,-1926.5,2415.0,219.5,-219.0,2013.0
4493,09:30:29.652,-1963.0,2373.5,218.5,-270.5,2021.5
4495,09:30:29.654,-2117.0,2260.0,216.5,-239.0,2026.0
4497,09:30:29.656,-2205.0,2267.0,214.0,-120.0,2024.0
4499,09:30:29.658,-2179.0,2317.5,211.5,14.5,2016.5
4501,09:30:29.660,-2197.0,2220.5,211.0,146.0,2004.5
4503,09:30:29.662,-2198.5,2201.0,210.0,170.0,1990.0
4505,09:30:29.664,-2169.5,2255.5,208.5,14.5,1976.0
4507,09:30:29.666,-2252.5,2226.5,207.0,-83.5,1960.0
4509,09:30:29.668,-2365.0,2138.5,205.0,-27.5,1922.0
4511,09:30:29.670,-2420.0,2134.0,202.5,149.5,1955.0
4513,09:30:29.672,-2398.5,2159.0,201.0,368.5,1973.0
4515,09:30:29.674,-2354.5,2155.5,201.0,553.0,1970.0
4517,09:30:29.676,-2272.5,2115.5,201.5,694.5,1967.0
4519,09:30:29.678,-2266.5,2073.0,202.5,632.0,1958.0
4521,09:30:29.680,-2194.0,2147.5,204.5,496.0,1902.0
4523,09:30:29.682,-2079.5,2132.5,206.0,482.0,1749.0
4525,09:30:29.684,-2047.5,2185.5,205.5,591.0,1708.5
4527,09:30:29.686,-1985.5,2241.5,203.0,814.0,1721.0
4529,09:30:29.688,-1967.5,2222.0,201.0,971.5,1681.5
4531,09:30:29.690,-1974.5,2197.0,200.5,1127.5,1636.5
4533,09:30:29.692,-1942.5,2205.0,198.5,1113.5,1588.5
4535,09:30:29.694,-1961.0,2268.0,195.0,859.0,1463.0
4537,09:30:29.696,-2059.0,2338.5,190.0,635.5,1355.5
4539,09:30:29.698,-2086.5,2292.0,187.0,560.0,1269.5
4541,09:30:29.700,-2133.5,2165.5,184.5,678.5,1316.0
4543,09:30:29.702,-2200.0,1975.0,183.0,866.0,1359.0
4545,09:30:29.704,-2276.5,1820.5,181.5,1004.0,1352.5
4547,09:30:29.706,-2354.0,1719.0,180.5,857.0,1196.5
4549,09:30:29.708,-2345.5,1670.5,179.5,659.5,997.5
4551,09:30:29.710,-2313.5,1634.5,177.0,555.0,859.0
4553,09:30:29.712,-2268.0,1663.5,173.5,566.5,788.5
4555,09:30:29.714,-2262.0,1643.0,170.5,712.5,732.0
4557,09:30:29.716,-2228.5,1575.5,168.5,869.0,696.0
4559,09:30:29.718,-2254.5,1478.5,167.0,966.0,668.0
4561,09:30:29.720,-2249.5,1486.0,164.5,988.0,626.5
4563,09:30:29.722,-2214.5,1687.5,160.5,633.5,581.0
4565,09:30:29.724,-2168.5,1697.0,156.5,352.0,485.0
4567,09:30:29.726,-2088.5,1576.0,151.5,560.0,479.0
4569,09:30:29.728,-2045.0,1366.5,146.0,812.5,529.0
4571,09:30:29.730,-2077.0,1109.0,141.0,921.0,528.5
4573,09:30:29.732,-2032.0,1036.5,137.0,897.0,520.0
4575,09:30:29.734,-1929.0,1064.5,135.0,780.0,504.5
4577,09:30:29.736,-1851.0,1113.0,134.0,674.5,479.0
4579,09:30:29.738,-1827.0,1069.0,133.5,790.5,441.5
4581,09:30:29.740,-1817.0,933.0,133.5,995.5,353.5
4583,09:30:29.742,-1755.5,881.5,133.5,921.5,276.5
4585,09:30:29.744,-1728.0,832.5,134.5,799.5,129.0
4587,09:30:29.746,-1748.5,692.5,136.0,779.0,-7.0
4589,09:30:29.748,-1731.5,564.0,137.0,835.0,-111.5
4591,09:30:29.750,-1614.0,512.5,137.0,910.5,-114.5
4593,09:30:29.752,-1484.0,480.0,136.0,819.5,-97.0
4595,09:30:29.754,-1380.0,525.0,135.0,584.5,-174.5
4597,09:30:29.756,-1221.5,686.0,133.5,357.5,-280.5
4599,09:30:29.758,-1105.0,714.0,132.0,286.5,-394.5
4601,09:30:29.760,-976.0,644.5,130.0,360.5,-432.0
4603,09:30:29.762,-842.5,562.0,128.5,480.0,-388.5
4605,09:30:29.764,-811.5,440.5,126.0,618.5,-334.5
4607,09:30:29.766,-836.5,312.5,123.0,525.5,-380.0
4609,09:30:29.768,-840.5,318.5,120.0,308.0,-499.5
4611,09:30:29.770,-750.5,364.0,118.0,303.5,-545.5
4613,09:30:29.772,-742.5,293.0,118.5,348.0,-574.5
4615,09:30:29.774,-868.0,227.5,121.0,395.5,-692.5
4617,09:30:29.776,-983.5,153.5,123.0,475.0,-755.0
4619,09:30:29.778,-986.5,37.0,123.0,466.0,-683.0
4621,09:30:29.780,-949.0,-6.5,122.0,310.5,-569.5
4623,09:30:29.782,-869.5,22.5,120.5,239.0,-495.5
4625,09:30:29.784,-743.5,100.0,118.0,344.5,-462.0
4627,09:30:29.786,-644.0,312.0,115.0,209.5,-414.5
4629,09:30:29.788,-661.0,434.5,111.5,-95.5,-466.5
4631,09:30:29.790,-801.0,435.0,108.5,-124.5,-696.0
4633,09:30:29.792,-980.5,587.5,106.0,-33.5,-894.5
4635,09:30:29.794,-984.5,536.5,104.0,-97.0,-958.5
4637,09:30:29.796,-850.5,285.0,101.5,-205.5,-932.5
4639,09:30:29.798,-767.5,63.5,97.5,-233.5,-999.0
4641,09:30:29.800,-761.5,32.0,94.5,-206.5,-1197.0
4643,09:30:29.802,-751.0,37.5,92.0,-71.5,-1343.5
4645,09:30:29.804,-591.0,-120.0,89.0,42.5,-1444.0
4647,09:30:29.806,-457.5,-320.0,86.5,27.0,-1523.0
4649,09:30:29.808,-248.5,-360.0,84.0,4.0,-1449.5
4651,09:30:29.810,-91.0,-363.0,81.5,225.5,-1345.0
4653,09:30:29.812,-87.5,-347.5,80.5,512.5,-1283.5
4655,09:30:29.814,-157.5,-262.5,79.0,349.5,-1279.0
4657,09:30:29.816,-276.0,-256.0,76.0,288.0,-1345.0
4659,09:30:29.818,-519.5,-390.5,71.5,394.5,-1417.5
4661,09:30:29.820,-790.5,-499.0,66.5,366.5,-1498.5
4663,09:30:29.822,-1097.0,-641.0,62.0,367.5,-1664.0
4665,09:30:29.824,-1299.5,-805.5,57.5,516.5,-1851.5
4667,09:30:29.826,-1371.0,-940.0,54.0,725.0,-2042.5
4669,09:30:29.828,-1370.5,-1063.5,52.5,857.0,-2221.0
4671,09:30:29.830,-1382.0,-1152.5,52.5,880.0,-2375.5
4673,09:30:29.832,-1235.5,-1225.5,53.0,867.0,-2482.0
4675,09:30:29.834,-1018.5,-1258.5,53.5,926.0,-2533.0
4677,09:30:29.836,-884.5,-1235.0,54.5,1020.0,-2580.0
4679,09:30:29.838,-814.0,-1157.0,56.0,1198.0,-2517.5
